Time[s],Displacement longi[mm],Force[kN],N/A,N/A,N/A,Thickness[mm],OuterWidth[mm],N/A
0.58,0,-0.015339,0,0,0,1.5221,20,
1.08,0.000111,-0.0097292,0,0,0,0,0,
1.58,0.001457,-0.0027053,0,0,0,0,0,
2.08,0.002352,0.016145,0,0,0,0,0,
2.58,0.003262,0.038137,0,0,0,0,0,
3.08,0.004125,0.058145,0,0,0,0,0,
3.58,0.0048,0.074423,0,0,0,0,0,
4.08,0.005549,0.091436,0,0,0,0,0,
4.58,0.006381,0.10871,0,0,0,0,0,
5.08,0.007146,0.12686,0,0,0,0,0,
5.58,0.007783,0.14171,0,0,0,0,0,
6.08,0.00848,0.15744,0,0,0,0,0,
6.58,0.009277,0.17256,0,0,0,0,0,
7.08,0.009876,0.188,0,0,0,0,0,
7.58,0.01049,0.20214,0,0,0,0,0,
8.09,0.011266,0.21872,0,0,0,0,0,
8.59,0.011988,0.23414,0,0,0,0,0,
9.09,0.012685,0.24929,0,0,0,0,0,
9.59,0.013356,0.26357,0,0,0,0,0,
10.09,0.014154,0.27915,0,0,0,0,0,
10.59,0.014845,0.29414,0,0,0,0,0,
11.09,0.015481,0.30957,0,0,0,0,0,
11.59,0.016215,0.32443,0,0,0,0,0,
12.09,0.016975,0.33986,0,0,0,0,0,
12.59,0.017618,0.354,0,0,0,0,0,
13.09,0.018378,0.36915,0,0,0,0,0,
13.58,0.019018,0.385,0,0,0,0,0,
14.08,0.019875,0.40186,0,0,0,0,0,
14.59,0.020571,0.416,0,0,0,0,0,
15.09,0.021285,0.43086,0,0,0,0,0,
15.59,0.021986,0.44514,0,0,0,0,0,
16.09,0.022828,0.46,0,0,0,0,0,
16.59,0.023553,0.47385,0,0,0,0,0,
17.09,0.024243,0.49,0,0,0,0,0,
17.59,0.024973,0.50514,0,0,0,0,0,
18.09,0.025897,0.52,0,0,0,0,0,
18.59,0.026651,0.53385,0,0,0,0,0,
19.08,0.027396,0.54915,0,0,0,0,0,
19.59,0.028246,0.56385,0,0,0,0,0,
20.09,0.029121,0.57915,0,0,0,0,0,
20.59,0.029881,0.59414,0,0,0,0,0,
21.09,0.030692,0.60957,0,0,0,0,0,
21.59,0.031634,0.62328,0,0,0,0,0,
22.09,0.032475,0.63758,0,0,0,0,0,
22.59,0.033266,0.65257,0,0,0,0,0,
23.09,0.034191,0.66857,0,0,0,0,0,
23.58,0.035163,0.68228,0,0,0,0,0,
24.09,0.036006,0.69658,0,0,0,0,0,
24.58,0.036884,0.71042,0,0,0,0,0,
25.08,0.03794,0.72472,0,0,0,0,0,
25.59,0.038912,0.73814,0,0,0,0,0,
26.09,0.039824,0.75372,0,0,0,0,0,
26.59,0.040836,0.76814,0,0,0,0,0,
27.09,0.041885,0.78172,0,0,0,0,0,
27.58,0.042859,0.79443,0,0,0,0,0,
28.09,0.043873,0.80857,0,0,0,0,0,
28.58,0.045015,0.82214,0,0,0,0,0,
29.09,0.046084,0.83586,0,0,0,0,0,
29.59,0.047133,0.84914,0,0,0,0,0,
30.08,0.048337,0.86286,0,0,0,0,0,
30.59,0.049457,0.87528,0,0,0,0,0,
31.08,0.050595,0.88829,0,0,0,0,0,
31.58,0.051797,0.90157,0,0,0,0,0,
32.08,0.053102,0.91557,0,0,0,0,0,
32.58,0.054305,0.92728,0,0,0,0,0,
33.09,0.05557,0.93958,0,0,0,0,0,
33.58,0.056951,0.95142,0,0,0,0,0,
34.08,0.058122,0.96343,0,0,0,0,0,
34.58,0.059492,0.97443,0,0,0,0,0,
35.08,0.060923,0.98743,0,0,0,0,0,
35.58,0.062224,0.99942,0,0,0,0,0,
36.08,0.063643,1.0107,0,0,0,0,0,
36.58,0.065185,1.0211,0,0,0,0,0,
37.09,0.066568,1.0326,0,0,0,0,0,
37.58,0.068041,1.0434,0,0,0,0,0,
38.09,0.069666,1.0546,0,0,0,0,0,
38.58,0.071139,1.0654,0,0,0,0,0,
39.08,0.072723,1.0763,0,0,0,0,0,
39.58,0.07443,1.0859,0,0,0,0,0,
40.08,0.075958,1.0957,0,0,0,0,0,
40.58,0.077617,1.1059,0,0,0,0,0,
41.08,0.079331,1.1166,0,0,0,0,0,
41.58,0.080915,1.1256,0,0,0,0,0,
42.08,0.082711,1.135,0,0,0,0,0,
42.58,0.084425,1.144,0,0,0,0,0,
43.09,0.086091,1.1531,0,0,0,0,0,
43.59,0.087971,1.1614,0,0,0,0,0,
44.09,0.089816,1.1706,0,0,0,0,0,
44.59,0.091605,1.1794,0,0,0,0,0,
45.09,0.09356,1.1886,0,0,0,0,0,
45.58,0.095343,1.1966,0,0,0,0,0,
46.08,0.097202,1.205,0,0,0,0,0,
46.58,0.099192,1.2136,0,0,0,0,0,
47.09,0.10105,1.2226,0,0,0,0,0,
47.58,0.10306,1.2304,0,0,0,0,0,
48.08,0.10509,1.2386,0,0,0,0,0,
48.58,0.10694,1.2459,0,0,0,0,0,
49.08,0.10906,1.2534,0,0,0,0,0,
49.58,0.11091,1.2611,0,0,0,0,0,
50.08,0.11292,1.2693,0,0,0,0,0,
50.58,0.11509,1.2761,0,0,0,0,0,
51.08,0.1171,1.2834,0,0,0,0,0,
51.58,0.11921,1.2903,0,0,0,0,0,
52.08,0.12131,1.2974,0,0,0,0,0,
52.58,0.12339,1.3041,0,0,0,0,0,
53.08,0.12562,1.3119,0,0,0,0,0,
53.58,0.12768,1.3189,0,0,0,0,0,
54.08,0.12985,1.3256,0,0,0,0,0,
54.58,0.13209,1.3317,0,0,0,0,0,
55.08,0.13415,1.3386,0,0,0,0,0,
55.58,0.13648,1.3451,0,0,0,0,0,
56.08,0.1386,1.3519,0,0,0,0,0,
56.58,0.14079,1.3581,0,0,0,0,0,
57.08,0.14308,1.3646,0,0,0,0,0,
57.58,0.14519,1.3701,0,0,0,0,0,
58.08,0.14752,1.3761,0,0,0,0,0,
58.58,0.14973,1.3824,0,0,0,0,0,
59.08,0.15196,1.389,0,0,0,0,0,
59.58,0.15426,1.3944,0,0,0,0,0,
60.08,0.15641,1.3999,0,0,0,0,0,
60.58,0.15877,1.4051,0,0,0,0,0,
61.08,0.16098,1.4109,0,0,0,0,0,
61.58,0.16324,1.4161,0,0,0,0,0,
62.08,0.1656,1.4219,0,0,0,0,0,
62.58,0.16783,1.4271,0,0,0,0,0,
63.08,0.17025,1.4326,0,0,0,0,0,
63.58,0.17256,1.4377,0,0,0,0,0,
64.08,0.17491,1.4433,0,0,0,0,0,
64.58,0.17728,1.4487,0,0,0,0,0,
65.08,0.17955,1.4543,0,0,0,0,0,
65.58,0.18199,1.4594,0,0,0,0,0,
66.08,0.18431,1.4646,0,0,0,0,0,
66.58,0.18668,1.4691,0,0,0,0,0,
67.08,0.1891,1.4739,0,0,0,0,0,
67.58,0.19135,1.4787,0,0,0,0,0,
68.08,0.19386,1.484,0,0,0,0,0,
68.58,0.19622,1.4884,0,0,0,0,0,
69.08,0.19866,1.4931,0,0,0,0,0,
69.58,0.2011,1.4979,0,0,0,0,0,
70.08,0.20344,1.5026,0,0,0,0,0,
70.58,0.20599,1.5067,0,0,0,0,0,
71.08,0.20836,1.5116,0,0,0,0,0,
71.58,0.2108,1.5161,0,0,0,0,0,
72.08,0.2133,1.5206,0,0,0,0,0,
72.58,0.21568,1.5247,0,0,0,0,0,
73.08,0.21824,1.5293,0,0,0,0,0,
73.58,0.22067,1.5337,0,0,0,0,0,
74.08,0.22323,1.5383,0,0,0,0,0,
74.58,0.22566,1.5427,0,0,0,0,0,
75.08,0.22816,1.547,0,0,0,0,0,
75.58,0.23075,1.5507,0,0,0,0,0,
76.08,0.23313,1.5546,0,0,0,0,0,
76.58,0.23574,1.5587,0,0,0,0,0,
77.08,0.23821,1.5633,0,0,0,0,0,
77.58,0.24075,1.5671,0,0,0,0,0,
78.08,0.24332,1.5711,0,0,0,0,0,
78.58,0.24579,1.5749,0,0,0,0,0,
79.08,0.24843,1.5789,0,0,0,0,0,
79.58,0.25085,1.5824,0,0,0,0,0,
80.08,0.2535,1.5866,0,0,0,0,0,
80.58,0.25606,1.5904,0,0,0,0,0,
81.08,0.25856,1.5943,0,0,0,0,0,
81.58,0.26122,1.5977,0,0,0,0,0,
82.08,0.26374,1.6016,0,0,0,0,0,
82.58,0.26641,1.6054,0,0,0,0,0,
83.08,0.26892,1.6093,0,0,0,0,0,
83.58,0.27152,1.6127,0,0,0,0,0,
84.08,0.27411,1.6163,0,0,0,0,0,
84.58,0.27664,1.6194,0,0,0,0,0,
85.08,0.27937,1.6229,0,0,0,0,0,
85.58,0.28192,1.6264,0,0,0,0,0,
86.08,0.28462,1.6303,0,0,0,0,0,
86.58,0.28714,1.6334,0,0,0,0,0,
87.08,0.2898,1.6369,0,0,0,0,0,
87.58,0.29247,1.6401,0,0,0,0,0,
88.08,0.29501,1.6436,0,0,0,0,0,
88.58,0.29782,1.6467,0,0,0,0,0,
89.08,0.30032,1.6503,0,0,0,0,0,
89.58,0.30308,1.6537,0,0,0,0,0,
90.08,0.30579,1.6573,0,0,0,0,0,
90.58,0.30853,1.6604,0,0,0,0,0,
91.08,0.31125,1.6636,0,0,0,0,0,
91.58,0.31389,1.6667,0,0,0,0,0,
92.08,0.31672,1.6703,0,0,0,0,0,
92.58,0.31936,1.6737,0,0,0,0,0,
93.08,0.32219,1.677,0,0,0,0,0,
93.58,0.32482,1.6797,0,0,0,0,0,
94.08,0.32759,1.6826,0,0,0,0,0,
94.58,0.33027,1.6857,0,0,0,0,0,
95.08,0.33297,1.6893,0,0,0,0,0,
95.58,0.33579,1.6924,0,0,0,0,0,
96.08,0.33849,1.6956,0,0,0,0,0,
96.58,0.34138,1.6984,0,0,0,0,0,
97.08,0.34403,1.7016,0,0,0,0,0,
97.58,0.34689,1.7047,0,0,0,0,0,
98.08,0.34962,1.708,0,0,0,0,0,
98.58,0.35241,1.7107,0,0,0,0,0,
99.08,0.35524,1.713,0,0,0,0,0,
99.58,0.35797,1.7159,0,0,0,0,0,
100.08,0.36078,1.7189,0,0,0,0,0,
100.58,0.36355,1.7221,0,0,0,0,0,
101.08,0.36646,1.7249,0,0,0,0,0,
101.58,0.36918,1.7279,0,0,0,0,0,
102.08,0.37207,1.7304,0,0,0,0,0,
102.58,0.37475,1.7336,0,0,0,0,0,
103.08,0.37761,1.7361,0,0,0,0,0,
103.58,0.38042,1.7389,0,0,0,0,0,
104.08,0.3832,1.7414,0,0,0,0,0,
104.58,0.38611,1.7443,0,0,0,0,0,
105.08,0.38879,1.7467,0,0,0,0,0,
105.58,0.39175,1.7496,0,0,0,0,0,
106.08,0.39447,1.7524,0,0,0,0,0,
106.58,0.39739,1.755,0,0,0,0,0,
107.08,0.40012,1.7576,0,0,0,0,0,
107.58,0.40295,1.7601,0,0,0,0,0,
108.08,0.40581,1.7626,0,0,0,0,0,
108.58,0.40863,1.7647,0,0,0,0,0,
109.08,0.41158,1.7676,0,0,0,0,0,
109.58,0.41434,1.7701,0,0,0,0,0,
110.08,0.41729,1.7729,0,0,0,0,0,
110.58,0.4201,1.7754,0,0,0,0,0,
111.08,0.42308,1.7783,0,0,0,0,0,
111.58,0.42587,1.7807,0,0,0,0,0,
112.08,0.4288,1.7833,0,0,0,0,0,
112.58,0.4317,1.7857,0,0,0,0,0,
113.08,0.43452,1.7883,0,0,0,0,0,
113.58,0.43745,1.7907,0,0,0,0,0,
114.08,0.44032,1.793,0,0,0,0,0,
114.58,0.44329,1.7953,0,0,0,0,0,
115.08,0.44613,1.7977,0,0,0,0,0,
115.58,0.44915,1.8,0,0,0,0,0,
116.08,0.45195,1.802,0,0,0,0,0,
116.58,0.455,1.8043,0,0,0,0,0,
117.08,0.45782,1.8067,0,0,0,0,0,
117.58,0.46077,1.8093,0,0,0,0,0,
118.08,0.46371,1.8117,0,0,0,0,0,
118.58,0.46656,1.814,0,0,0,0,0,
119.08,0.46949,1.816,0,0,0,0,0,
119.58,0.47237,1.8183,0,0,0,0,0,
120.08,0.47535,1.8207,0,0,0,0,0,
120.58,0.4782,1.8227,0,0,0,0,0,
121.08,0.48118,1.8249,0,0,0,0,0,
121.58,0.48404,1.8274,0,0,0,0,0,
122.08,0.48702,1.83,0,0,0,0,0,
122.58,0.48988,1.8317,0,0,0,0,0,
123.08,0.49285,1.8336,0,0,0,0,0,
123.58,0.49579,1.8357,0,0,0,0,0,
124.08,0.49869,1.838,0,0,0,0,0,
124.58,0.50168,1.84,0,0,0,0,0,
125.08,0.50456,1.8423,0,0,0,0,0,
125.58,0.50754,1.8444,0,0,0,0,0,
126.08,0.51039,1.8466,0,0,0,0,0,
126.58,0.51342,1.8487,0,0,0,0,0,
127.08,0.51624,1.8513,0,0,0,0,0,
127.58,0.51927,1.8534,0,0,0,0,0,
128.08,0.52215,1.8556,0,0,0,0,0,
128.58,0.52517,1.8574,0,0,0,0,0,
129.08,0.52806,1.8593,0,0,0,0,0,
129.58,0.53105,1.861,0,0,0,0,0,
130.08,0.53401,1.8633,0,0,0,0,0,
130.58,0.5369,1.8654,0,0,0,0,0,
131.08,0.53992,1.867,0,0,0,0,0,
131.58,0.54282,1.8686,0,0,0,0,0,
132.08,0.54588,1.8707,0,0,0,0,0,
132.58,0.54879,1.873,0,0,0,0,0,
133.08,0.55187,1.875,0,0,0,0,0,
133.58,0.55471,1.877,0,0,0,0,0,
134.08,0.55774,1.8787,0,0,0,0,0,
134.58,0.56062,1.8806,0,0,0,0,0,
135.08,0.56361,1.8827,0,0,0,0,0,
135.58,0.56661,1.885,0,0,0,0,0,
136.08,0.56956,1.8867,0,0,0,0,0,
136.58,0.57257,1.8883,0,0,0,0,0,
137.08,0.57544,1.89,0,0,0,0,0,
137.58,0.57846,1.892,0,0,0,0,0,
138.08,0.58133,1.894,0,0,0,0,0,
138.58,0.58445,1.896,0,0,0,0,0,
139.08,0.58736,1.898,0,0,0,0,0,
139.58,0.59036,1.8997,0,0,0,0,0,
140.08,0.59324,1.9016,0,0,0,0,0,
140.58,0.59633,1.9034,0,0,0,0,0,
141.08,0.59927,1.9053,0,0,0,0,0,
141.58,0.60222,1.907,0,0,0,0,0,
142.08,0.60524,1.9087,0,0,0,0,0,
142.58,0.6082,1.9103,0,0,0,0,0,
143.08,0.61129,1.912,0,0,0,0,0,
143.58,0.6142,1.914,0,0,0,0,0,
144.08,0.61728,1.916,0,0,0,0,0,
144.58,0.62022,1.9177,0,0,0,0,0,
145.08,0.62326,1.9193,0,0,0,0,0,
145.58,0.62616,1.921,0,0,0,0,0,
146.08,0.62918,1.9227,0,0,0,0,0,
146.58,0.63224,1.9246,0,0,0,0,0,
147.08,0.63522,1.9264,0,0,0,0,0,
147.58,0.63826,1.9283,0,0,0,0,0,
148.08,0.64118,1.9297,0,0,0,0,0,
148.58,0.64424,1.931,0,0,0,0,0,
149.08,0.64715,1.9326,0,0,0,0,0,
149.58,0.65031,1.9344,0,0,0,0,0,
150.08,0.65315,1.9363,0,0,0,0,0,
150.58,0.65621,1.938,0,0,0,0,0,
151.08,0.65918,1.94,0,0,0,0,0,
151.58,0.66222,1.9417,0,0,0,0,0,
152.08,0.66529,1.9433,0,0,0,0,0,
152.58,0.66831,1.9447,0,0,0,0,0,
153.08,0.67136,1.9463,0,0,0,0,0,
153.58,0.6743,1.9477,0,0,0,0,0,
154.08,0.67748,1.9493,0,0,0,0,0,
154.58,0.68045,1.951,0,0,0,0,0,
155.08,0.68356,1.9527,0,0,0,0,0,
155.58,0.68649,1.9543,0,0,0,0,0,
156.08,0.68963,1.956,0,0,0,0,0,
156.58,0.69257,1.9577,0,0,0,0,0,
157.08,0.69565,1.959,0,0,0,0,0,
157.58,0.69867,1.9603,0,0,0,0,0,
158.08,0.70172,1.962,0,0,0,0,0,
158.58,0.70482,1.9637,0,0,0,0,0,
159.08,0.70785,1.9656,0,0,0,0,0,
159.58,0.71095,1.9674,0,0,0,0,0,
160.08,0.71399,1.969,0,0,0,0,0,
160.58,0.71719,1.9703,0,0,0,0,0,
161.08,0.72009,1.972,0,0,0,0,0,
161.58,0.72327,1.9737,0,0,0,0,0,
162.08,0.72621,1.9753,0,0,0,0,0,
162.58,0.72938,1.9767,0,0,0,0,0,
163.08,0.73243,1.9783,0,0,0,0,0,
163.58,0.73554,1.9797,0,0,0,0,0,
164.08,0.73869,1.9813,0,0,0,0,0,
164.58,0.74172,1.9827,0,0,0,0,0,
165.08,0.7448,1.9843,0,0,0,0,0,
165.58,0.74789,1.9857,0,0,0,0,0,
166.08,0.75106,1.987,0,0,0,0,0,
166.58,0.75408,1.9883,0,0,0,0,0,
167.08,0.75725,1.9897,0,0,0,0,0,
167.58,0.76021,1.9913,0,0,0,0,0,
168.08,0.76351,1.9927,0,0,0,0,0,
168.58,0.76647,1.9943,0,0,0,0,0,
169.08,0.76963,1.9957,0,0,0,0,0,
169.58,0.77262,1.9973,0,0,0,0,0,
170.08,0.77577,1.9987,0,0,0,0,0,
170.58,0.77879,2.0003,0,0,0,0,0,
171.08,0.78194,2.0017,0,0,0,0,0,
171.58,0.78504,2.0033,0,0,0,0,0,
172.08,0.78801,2.0047,0,0,0,0,0,
172.58,0.79122,2.0063,0,0,0,0,0,
173.08,0.79415,2.0077,0,0,0,0,0,
173.58,0.7974,2.009,0,0,0,0,0,
174.08,0.80037,2.0103,0,0,0,0,0,
174.58,0.80356,2.0117,0,0,0,0,0,
175.08,0.80647,2.013,0,0,0,0,0,
175.58,0.80972,2.014,0,0,0,0,0,
176.08,0.81273,2.0153,0,0,0,0,0,
176.58,0.81593,2.017,0,0,0,0,0,
177.08,0.81901,2.0187,0,0,0,0,0,
177.58,0.82212,2.0203,0,0,0,0,0,
178.08,0.82523,2.0217,0,0,0,0,0,
178.58,0.82832,2.023,0,0,0,0,0,
179.08,0.83146,2.024,0,0,0,0,0,
179.58,0.83449,2.0253,0,0,0,0,0,
180.08,0.83768,2.0267,0,0,0,0,0,
180.58,0.84058,2.0283,0,0,0,0,0,
181.08,0.84381,2.0294,0,0,0,0,0,
181.58,0.84683,2.0306,0,0,0,0,0,
182.08,0.84996,2.032,0,0,0,0,0,
182.58,0.85303,2.0337,0,0,0,0,0,
183.08,0.85619,2.035,0,0,0,0,0,
183.58,0.85922,2.0363,0,0,0,0,0,
184.08,0.86232,2.0374,0,0,0,0,0,
184.58,0.8654,2.0386,0,0,0,0,0,
185.08,0.8685,2.0397,0,0,0,0,0,
185.58,0.87168,2.0413,0,0,0,0,0,
186.08,0.87467,2.0427,0,0,0,0,0,
186.58,0.87794,2.044,0,0,0,0,0,
187.08,0.88096,2.0453,0,0,0,0,0,
187.58,0.88416,2.0467,0,0,0,0,0,
188.08,0.8872,2.048,0,0,0,0,0,
188.58,0.8904,2.049,0,0,0,0,0,
189.08,0.89341,2.0503,0,0,0,0,0,
189.58,0.89662,2.0517,0,0,0,0,0,
190.08,0.8997,2.053,0,0,0,0,0,
190.58,0.90284,2.054,0,0,0,0,0,
191.08,0.90591,2.055,0,0,0,0,0,
191.58,0.90894,2.0563,0,0,0,0,0,
192.08,0.9121,2.0577,0,0,0,0,0,
192.58,0.91518,2.0593,0,0,0,0,0,
193.08,0.91833,2.0604,0,0,0,0,0,
193.58,0.92136,2.0616,0,0,0,0,0,
194.08,0.92461,2.0627,0,0,0,0,0,
194.58,0.92763,2.064,0,0,0,0,0,
195.08,0.93088,2.0653,0,0,0,0,0,
195.58,0.93394,2.0664,0,0,0,0,0,
196.08,0.93706,2.0676,0,0,0,0,0,
196.58,0.94017,2.0687,0,0,0,0,0,
197.08,0.94325,2.07,0,0,0,0,0,
197.58,0.94639,2.071,0,0,0,0,0,
198.08,0.94944,2.0723,0,0,0,0,0,
198.58,0.95258,2.0737,0,0,0,0,0,
199.08,0.95562,2.075,0,0,0,0,0,
199.58,0.95875,2.076,0,0,0,0,0,
200.08,0.96185,2.077,0,0,0,0,0,
200.58,0.96503,2.0783,0,0,0,0,0,
201.08,0.96806,2.0797,0,0,0,0,0,
201.58,0.97129,2.081,0,0,0,0,0,
202.08,0.97435,2.0823,0,0,0,0,0,
202.58,0.97751,2.0834,0,0,0,0,0,
203.08,0.98066,2.0846,0,0,0,0,0,
203.58,0.98381,2.0857,0,0,0,0,0,
204.08,0.98701,2.087,0,0,0,0,0,
204.58,0.98996,2.088,0,0,0,0,0,
205.08,0.99317,2.089,0,0,0,0,0,
205.58,0.99623,2.09,0,0,0,0,0,
206.08,0.99939,2.0913,0,0,0,0,0,
206.58,1.0024,2.0927,0,0,0,0,0,
207.08,1.0056,2.094,0,0,0,0,0,
207.58,1.0086,2.095,0,0,0,0,0,
208.08,1.0118,2.0957,0,0,0,0,0,
208.58,1.0149,2.0966,0,0,0,0,0,
209.08,1.0181,2.0977,0,0,0,0,0,
209.58,1.0212,2.0993,0,0,0,0,0,
210.08,1.0244,2.1007,0,0,0,0,0,
210.58,1.0275,2.102,0,0,0,0,0,
211.08,1.0306,2.1027,0,0,0,0,0,
211.58,1.0338,2.1036,0,0,0,0,0,
212.08,1.0369,2.1047,0,0,0,0,0,
212.58,1.0401,2.106,0,0,0,0,0,
213.08,1.0431,2.107,0,0,0,0,0,
213.58,1.0464,2.1083,0,0,0,0,0,
214.08,1.0494,2.1094,0,0,0,0,0,
214.58,1.0527,2.1103,0,0,0,0,0,
215.08,1.0556,2.111,0,0,0,0,0,
215.58,1.0589,2.1123,0,0,0,0,0,
216.08,1.0619,2.1137,0,0,0,0,0,
216.58,1.0651,2.115,0,0,0,0,0,
217.08,1.0681,2.116,0,0,0,0,0,
217.58,1.0714,2.117,0,0,0,0,0,
218.08,1.0744,2.118,0,0,0,0,0,
218.58,1.0775,2.119,0,0,0,0,0,
219.08,1.0807,2.12,0,0,0,0,0,
219.58,1.0838,2.1213,0,0,0,0,0,
220.08,1.087,2.1224,0,0,0,0,0,
220.58,1.0901,2.1236,0,0,0,0,0,
221.08,1.0932,2.1244,0,0,0,0,0,
221.58,1.0963,2.1256,0,0,0,0,0,
222.08,1.0995,2.1267,0,0,0,0,0,
222.58,1.1026,2.128,0,0,0,0,0,
223.08,1.1058,2.129,0,0,0,0,0,
223.58,1.1088,2.13,0,0,0,0,0,
224.08,1.112,2.131,0,0,0,0,0,
224.58,1.1152,2.132,0,0,0,0,0,
225.08,1.1183,2.133,0,0,0,0,0,
225.58,1.1214,2.134,0,0,0,0,0,
226.08,1.1245,2.135,0,0,0,0,0,
226.58,1.1277,2.136,0,0,0,0,0,
227.08,1.1308,2.1373,0,0,0,0,0,
227.58,1.1341,2.1384,0,0,0,0,0,
228.08,1.1371,2.1393,0,0,0,0,0,
228.58,1.1404,2.14,0,0,0,0,0,
229.08,1.1434,2.1413,0,0,0,0,0,
229.58,1.1466,2.1427,0,0,0,0,0,
230.08,1.1498,2.144,0,0,0,0,0,
230.58,1.1529,2.1447,0,0,0,0,0,
231.08,1.1561,2.1456,0,0,0,0,0,
231.58,1.1593,2.1467,0,0,0,0,0,
232.08,1.1623,2.1477,0,0,0,0,0,
232.58,1.1655,2.1486,0,0,0,0,0,
233.08,1.1687,2.1497,0,0,0,0,0,
233.58,1.1718,2.151,0,0,0,0,0,
234.08,1.175,2.152,0,0,0,0,0,
234.58,1.1781,2.153,0,0,0,0,0,
235.08,1.1814,2.154,0,0,0,0,0,
235.58,1.1845,2.155,0,0,0,0,0,
236.08,1.1877,2.156,0,0,0,0,0,
236.58,1.1908,2.157,0,0,0,0,0,
237.08,1.1941,2.158,0,0,0,0,0,
237.58,1.1972,2.159,0,0,0,0,0,
238.08,1.2004,2.16,0,0,0,0,0,
238.58,1.2036,2.161,0,0,0,0,0,
239.08,1.2067,2.162,0,0,0,0,0,
239.58,1.2099,2.163,0,0,0,0,0,
240.08,1.213,2.164,0,0,0,0,0,
240.58,1.2163,2.165,0,0,0,0,0,
241.08,1.2194,2.166,0,0,0,0,0,
241.58,1.2226,2.1667,0,0,0,0,0,
242.08,1.2256,2.1673,0,0,0,0,0,
242.58,1.2289,2.168,0,0,0,0,0,
243.08,1.2319,2.1693,0,0,0,0,0,
243.58,1.2352,2.1707,0,0,0,0,0,
244.08,1.2382,2.172,0,0,0,0,0,
244.58,1.2414,2.173,0,0,0,0,0,
245.08,1.2445,2.174,0,0,0,0,0,
245.58,1.2477,2.1747,0,0,0,0,0,
246.08,1.251,2.1756,0,0,0,0,0,
246.58,1.2541,2.1767,0,0,0,0,0,
247.08,1.2573,2.1777,0,0,0,0,0,
247.58,1.2604,2.1783,0,0,0,0,0,
248.08,1.2637,2.1793,0,0,0,0,0,
248.58,1.2668,2.1804,0,0,0,0,0,
249.08,1.27,2.1813,0,0,0,0,0,
249.58,1.2731,2.182,0,0,0,0,0,
250.08,1.2764,2.183,0,0,0,0,0,
250.58,1.2794,2.184,0,0,0,0,0,
251.08,1.2827,2.185,0,0,0,0,0,
251.58,1.2857,2.186,0,0,0,0,0,
252.08,1.2889,2.187,0,0,0,0,0,
252.58,1.292,2.188,0,0,0,0,0,
253.08,1.2951,2.189,0,0,0,0,0,
253.58,1.2984,2.19,0,0,0,0,0,
254.08,1.3014,2.191,0,0,0,0,0,
254.58,1.3046,2.192,0,0,0,0,0,
255.08,1.3077,2.193,0,0,0,0,0,
255.58,1.311,2.1937,0,0,0,0,0,
256.08,1.314,2.1946,0,0,0,0,0,
256.58,1.3173,2.1957,0,0,0,0,0,
257.08,1.3203,2.1967,0,0,0,0,0,
257.58,1.3236,2.1973,0,0,0,0,0,
258.08,1.3266,2.198,0,0,0,0,0,
258.58,1.3297,2.199,0,0,0,0,0,
259.08,1.3328,2.2,0,0,0,0,0,
259.58,1.3359,2.201,0,0,0,0,0,
260.08,1.3391,2.202,0,0,0,0,0,
260.58,1.3422,2.203,0,0,0,0,0,
261.08,1.3454,2.204,0,0,0,0,0,
261.58,1.3485,2.2047,0,0,0,0,0,
262.08,1.3518,2.2056,0,0,0,0,0,
262.58,1.3549,2.2064,0,0,0,0,0,
263.08,1.3581,2.2073,0,0,0,0,0,
263.58,1.3611,2.208,0,0,0,0,0,
264.08,1.3643,2.209,0,0,0,0,0,
264.58,1.3674,2.21,0,0,0,0,0,
265.08,1.3706,2.211,0,0,0,0,0,
265.58,1.3737,2.212,0,0,0,0,0,
266.08,1.3768,2.213,0,0,0,0,0,
266.58,1.38,2.214,0,0,0,0,0,
267.08,1.3831,2.2147,0,0,0,0,0,
267.58,1.3863,2.2156,0,0,0,0,0,
268.08,1.3894,2.2164,0,0,0,0,0,
268.58,1.3927,2.2173,0,0,0,0,0,
269.08,1.3957,2.218,0,0,0,0,0,
269.58,1.3989,2.219,0,0,0,0,0,
270.08,1.402,2.22,0,0,0,0,0,
270.58,1.4053,2.221,0,0,0,0,0,
271.08,1.4084,2.222,0,0,0,0,0,
271.58,1.4116,2.2227,0,0,0,0,0,
272.08,1.4148,2.2233,0,0,0,0,0,
272.58,1.4179,2.224,0,0,0,0,0,
273.08,1.4212,2.225,0,0,0,0,0,
273.58,1.4242,2.226,0,0,0,0,0,
274.08,1.4275,2.227,0,0,0,0,0,
274.58,1.4306,2.228,0,0,0,0,0,
275.08,1.4338,2.229,0,0,0,0,0,
275.58,1.4369,2.2297,0,0,0,0,0,
276.08,1.4402,2.2306,0,0,0,0,0,
276.58,1.4432,2.2314,0,0,0,0,0,
277.08,1.4465,2.2323,0,0,0,0,0,
277.58,1.4496,2.233,0,0,0,0,0,
278.08,1.4529,2.2343,0,0,0,0,0,
278.58,1.456,2.2354,0,0,0,0,0,
279.08,1.4592,2.2363,0,0,0,0,0,
279.58,1.4623,2.237,0,0,0,0,0,
280.08,1.4656,2.2377,0,0,0,0,0,
280.58,1.4687,2.2386,0,0,0,0,0,
281.08,1.4719,2.2397,0,0,0,0,0,
281.58,1.4751,2.2407,0,0,0,0,0,
282.08,1.4782,2.2413,0,0,0,0,0,
282.58,1.4815,2.242,0,0,0,0,0,
283.08,1.4846,2.243,0,0,0,0,0,
283.58,1.4878,2.244,0,0,0,0,0,
284.08,1.4909,2.245,0,0,0,0,0,
284.58,1.4942,2.2457,0,0,0,0,0,
285.08,1.4973,2.2463,0,0,0,0,0,
285.58,1.5006,2.247,0,0,0,0,0,
286.08,1.5037,2.248,0,0,0,0,0,
286.58,1.5069,2.249,0,0,0,0,0,
287.08,1.51,2.25,0,0,0,0,0,
287.58,1.5132,2.2507,0,0,0,0,0,
288.08,1.5164,2.2516,0,0,0,0,0,
288.58,1.5195,2.2524,0,0,0,0,0,
289.08,1.5228,2.2533,0,0,0,0,0,
289.58,1.5258,2.254,0,0,0,0,0,
290.08,1.5291,2.255,0,0,0,0,0,
290.58,1.5321,2.2557,0,0,0,0,0,
291.08,1.5353,2.2566,0,0,0,0,0,
291.58,1.5385,2.2574,0,0,0,0,0,
292.08,1.5418,2.2583,0,0,0,0,0,
292.58,1.5448,2.259,0,0,0,0,0,
293.08,1.5481,2.26,0,0,0,0,0,
293.58,1.5512,2.261,0,0,0,0,0,
294.08,1.5544,2.2617,0,0,0,0,0,
294.58,1.5576,2.2626,0,0,0,0,0,
295.08,1.5607,2.2634,0,0,0,0,0,
295.58,1.5639,2.2643,0,0,0,0,0,
296.08,1.5671,2.265,0,0,0,0,0,
296.58,1.5703,2.2657,0,0,0,0,0,
297.08,1.5734,2.2666,0,0,0,0,0,
297.58,1.5766,2.2677,0,0,0,0,0,
298.08,1.5797,2.2687,0,0,0,0,0,
298.58,1.583,2.2693,0,0,0,0,0,
299.08,1.5861,2.27,0,0,0,0,0,
299.58,1.5894,2.271,0,0,0,0,0,
300.08,1.5924,2.2717,0,0,0,0,0,
300.58,1.5956,2.2723,0,0,0,0,0,
301.08,1.5988,2.273,0,0,0,0,0,
301.58,1.6019,2.274,0,0,0,0,0,
302.08,1.6051,2.275,0,0,0,0,0,
302.58,1.6082,2.2757,0,0,0,0,0,
303.08,1.6114,2.2763,0,0,0,0,0,
303.58,1.6145,2.277,0,0,0,0,0,
304.08,1.6177,2.278,0,0,0,0,0,
304.58,1.6209,2.279,0,0,0,0,0,
305.08,1.6242,2.28,0,0,0,0,0,
305.58,1.6273,2.281,0,0,0,0,0,
306.08,1.6306,2.2817,0,0,0,0,0,
306.58,1.6337,2.2823,0,0,0,0,0,
307.08,1.637,2.283,0,0,0,0,0,
307.58,1.6401,2.284,0,0,0,0,0,
308.08,1.6433,2.285,0,0,0,0,0,
308.58,1.6464,2.2857,0,0,0,0,0,
309.08,1.6496,2.2863,0,0,0,0,0,
309.58,1.6528,2.287,0,0,0,0,0,
