Time[s],Displacement longi[mm],Force[kN],N/A,N/A,N/A,Thickness[mm],OuterWidth[mm],N/A
0.59,0,-0.030795,0,0,0,1.5075,20,
1.09,8.3e-05,-0.024363,0,0,0,0,0,
1.59,0.001468,-0.01671,0,0,0,0,0,
2.09,0.00257,0.004581,0,0,0,0,0,
2.59,0.00369,0.02956,0,0,0,0,0,
3.09,0.004828,0.055867,0,0,0,0,0,
3.59,0.005929,0.078846,0,0,0,0,0,
4.09,0.00696,0.10358,0,0,0,0,0,
4.59,0.007918,0.12513,0,0,0,0,0,
5.09,0.008914,0.14715,0,0,0,0,0,
5.59,0.010007,0.16728,0,0,0,0,0,
6.09,0.011003,0.18915,0,0,0,0,0,
6.59,0.011858,0.20957,0,0,0,0,0,
7.09,0.012724,0.23043,0,0,0,0,0,
7.59,0.013655,0.25028,0,0,0,0,0,
8.09,0.014611,0.26986,0,0,0,0,0,
8.59,0.015346,0.28757,0,0,0,0,0,
9.09,0.01605,0.30457,0,0,0,0,0,
9.59,0.016759,0.32014,0,0,0,0,0,
10.09,0.017588,0.33615,0,0,0,0,0,
10.59,0.018362,0.351,0,0,0,0,0,
11.09,0.019071,0.36715,0,0,0,0,0,
11.59,0.019873,0.38285,0,0,0,0,0,
12.09,0.020779,0.40015,0,0,0,0,0,
12.59,0.021543,0.41585,0,0,0,0,0,
13.09,0.022286,0.43315,0,0,0,0,0,
13.59,0.023179,0.44885,0,0,0,0,0,
14.09,0.024064,0.465,0,0,0,0,0,
14.59,0.024798,0.48014,0,0,0,0,0,
15.09,0.02558,0.49571,0,0,0,0,0,
15.59,0.026532,0.51229,0,0,0,0,0,
16.09,0.027387,0.52885,0,0,0,0,0,
16.59,0.028187,0.54586,0,0,0,0,0,
17.09,0.029104,0.56228,0,0,0,0,0,
17.59,0.030137,0.57757,0,0,0,0,0,
18.09,0.030973,0.59129,0,0,0,0,0,
18.59,0.031797,0.60614,0,0,0,0,0,
19.09,0.032846,0.62286,0,0,0,0,0,
19.59,0.033822,0.63885,0,0,0,0,0,
20.09,0.034755,0.656,0,0,0,0,0,
20.59,0.035699,0.67185,0,0,0,0,0,
21.09,0.036865,0.687,0,0,0,0,0,
21.59,0.03778,0.70114,0,0,0,0,0,
22.09,0.038754,0.718,0,0,0,0,0,
22.59,0.039901,0.73385,0,0,0,0,0,
23.09,0.041,0.749,0,0,0,0,0,
23.59,0.042013,0.76285,0,0,0,0,0,
24.09,0.043259,0.77815,0,0,0,0,0,
24.59,0.044442,0.79285,0,0,0,0,0,
25.09,0.045487,0.80786,0,0,0,0,0,
25.59,0.046713,0.82185,0,0,0,0,0,
26.09,0.047986,0.83615,0,0,0,0,0,
26.59,0.04915,0.849,0,0,0,0,0,
27.09,0.050464,0.86286,0,0,0,0,0,
27.59,0.051859,0.877,0,0,0,0,0,
28.09,0.053126,0.89186,0,0,0,0,0,
28.59,0.054435,0.904,0,0,0,0,0,
29.09,0.055955,0.91686,0,0,0,0,0,
29.59,0.057334,0.92942,0,0,0,0,0,
30.09,0.058712,0.94243,0,0,0,0,0,
30.59,0.060273,0.95414,0,0,0,0,0,
31.09,0.061763,0.96772,0,0,0,0,0,
31.59,0.063228,0.98042,0,0,0,0,0,
32.09,0.064918,0.99243,0,0,0,0,0,
32.59,0.066471,1.0034,0,0,0,0,0,
33.09,0.067969,1.0156,0,0,0,0,0,
33.59,0.069721,1.0271,0,0,0,0,0,
34.09,0.071333,1.0389,0,0,0,0,0,
34.59,0.072992,1.0499,0,0,0,0,0,
35.09,0.074868,1.0611,0,0,0,0,0,
35.59,0.076522,1.0713,0,0,0,0,0,
36.09,0.078319,1.082,0,0,0,0,0,
36.59,0.080203,1.0929,0,0,0,0,0,
37.09,0.081966,1.1043,0,0,0,0,0,
37.59,0.083907,1.1139,0,0,0,0,0,
38.09,0.085813,1.1237,0,0,0,0,0,
38.59,0.08757,1.1333,0,0,0,0,0,
39.09,0.089621,1.1429,0,0,0,0,0,
39.59,0.091557,1.1517,0,0,0,0,0,
40.09,0.093474,1.1619,0,0,0,0,0,
40.59,0.095548,1.1716,0,0,0,0,0,
41.09,0.097403,1.1806,0,0,0,0,0,
41.59,0.099512,1.1887,0,0,0,0,0,
42.09,0.10149,1.1976,0,0,0,0,0,
42.59,0.1034,1.2061,0,0,0,0,0,
43.09,0.10551,1.2146,0,0,0,0,0,
43.59,0.10742,1.2224,0,0,0,0,0,
44.09,0.10946,1.2306,0,0,0,0,0,
44.59,0.11159,1.2379,0,0,0,0,0,
45.09,0.11348,1.2454,0,0,0,0,0,
45.59,0.11557,1.2529,0,0,0,0,0,
46.09,0.11761,1.2609,0,0,0,0,0,
46.59,0.11958,1.2679,0,0,0,0,0,
47.09,0.12183,1.2751,0,0,0,0,0,
47.59,0.12378,1.2819,0,0,0,0,0,
48.09,0.12591,1.2886,0,0,0,0,0,
48.59,0.12804,1.295,0,0,0,0,0,
49.09,0.13003,1.3026,0,0,0,0,0,
49.59,0.13228,1.3096,0,0,0,0,0,
50.09,0.1344,1.3161,0,0,0,0,0,
50.59,0.13652,1.3221,0,0,0,0,0,
51.09,0.13875,1.3289,0,0,0,0,0,
51.59,0.14083,1.3351,0,0,0,0,0,
52.09,0.14313,1.3416,0,0,0,0,0,
52.59,0.1453,1.3477,0,0,0,0,0,
53.09,0.14749,1.3543,0,0,0,0,0,
53.59,0.14982,1.3601,0,0,0,0,0,
54.09,0.15199,1.3661,0,0,0,0,0,
54.59,0.1543,1.3721,0,0,0,0,0,
55.09,0.15649,1.3786,0,0,0,0,0,
55.59,0.15875,1.3839,0,0,0,0,0,
56.09,0.16111,1.3894,0,0,0,0,0,
56.59,0.16325,1.3949,0,0,0,0,0,
57.09,0.16557,1.4006,0,0,0,0,0,
57.59,0.16781,1.4057,0,0,0,0,0,
58.09,0.17006,1.4116,0,0,0,0,0,
58.59,0.17242,1.4171,0,0,0,0,0,
59.09,0.17467,1.4226,0,0,0,0,0,
59.59,0.17706,1.4274,0,0,0,0,0,
60.09,0.17936,1.4326,0,0,0,0,0,
60.59,0.18166,1.4377,0,0,0,0,0,
61.09,0.18414,1.4433,0,0,0,0,0,
61.59,0.18638,1.4484,0,0,0,0,0,
62.09,0.18884,1.4536,0,0,0,0,0,
62.59,0.19122,1.4581,0,0,0,0,0,
63.09,0.1935,1.4629,0,0,0,0,0,
63.59,0.19601,1.4677,0,0,0,0,0,
64.09,0.19831,1.4733,0,0,0,0,0,
64.59,0.20085,1.4781,0,0,0,0,0,
65.09,0.20317,1.4829,0,0,0,0,0,
65.59,0.20565,1.4871,0,0,0,0,0,
66.09,0.20812,1.4916,0,0,0,0,0,
66.59,0.21049,1.4957,0,0,0,0,0,
67.09,0.21312,1.5009,0,0,0,0,0,
67.59,0.21552,1.5059,0,0,0,0,0,
68.09,0.21804,1.5103,0,0,0,0,0,
68.59,0.22054,1.514,0,0,0,0,0,
69.09,0.22293,1.5183,0,0,0,0,0,
69.59,0.22561,1.5227,0,0,0,0,0,
70.09,0.22801,1.5273,0,0,0,0,0,
70.59,0.23054,1.5317,0,0,0,0,0,
71.09,0.23309,1.5363,0,0,0,0,0,
71.59,0.23556,1.5404,0,0,0,0,0,
72.09,0.23824,1.5446,0,0,0,0,0,
72.59,0.24072,1.5487,0,0,0,0,0,
73.09,0.24334,1.5524,0,0,0,0,0,
73.59,0.24577,1.5559,0,0,0,0,0,
74.09,0.24835,1.5597,0,0,0,0,0,
74.59,0.25098,1.564,0,0,0,0,0,
75.09,0.25348,1.5677,0,0,0,0,0,
75.59,0.25615,1.5716,0,0,0,0,0,
76.09,0.25859,1.5754,0,0,0,0,0,
76.59,0.26128,1.5793,0,0,0,0,0,
77.09,0.26386,1.583,0,0,0,0,0,
77.59,0.26643,1.587,0,0,0,0,0,
78.09,0.26912,1.591,0,0,0,0,0,
78.59,0.27162,1.595,0,0,0,0,0,
79.09,0.27436,1.5984,0,0,0,0,0,
79.59,0.2769,1.6019,0,0,0,0,0,
80.09,0.27958,1.6051,0,0,0,0,0,
80.59,0.2822,1.6089,0,0,0,0,0,
81.09,0.2848,1.6124,0,0,0,0,0,
81.59,0.28756,1.6166,0,0,0,0,0,
82.09,0.29014,1.6201,0,0,0,0,0,
82.59,0.29291,1.6236,0,0,0,0,0,
83.09,0.29553,1.6267,0,0,0,0,0,
83.59,0.29822,1.6303,0,0,0,0,0,
84.09,0.30084,1.6337,0,0,0,0,0,
84.59,0.30346,1.637,0,0,0,0,0,
85.09,0.30619,1.64,0,0,0,0,0,
85.59,0.30869,1.6433,0,0,0,0,0,
86.09,0.31151,1.6467,0,0,0,0,0,
86.59,0.31406,1.65,0,0,0,0,0,
87.09,0.31672,1.653,0,0,0,0,0,
87.59,0.3194,1.6563,0,0,0,0,0,
88.09,0.32205,1.6594,0,0,0,0,0,
88.59,0.32479,1.6626,0,0,0,0,0,
89.09,0.32731,1.6657,0,0,0,0,0,
89.59,0.33012,1.669,0,0,0,0,0,
90.09,0.3327,1.672,0,0,0,0,0,
90.59,0.33545,1.675,0,0,0,0,0,
91.09,0.33808,1.6777,0,0,0,0,0,
91.59,0.34072,1.6806,0,0,0,0,0,
92.09,0.34346,1.6834,0,0,0,0,0,
92.59,0.34604,1.6866,0,0,0,0,0,
93.09,0.34885,1.6894,0,0,0,0,0,
93.59,0.35145,1.6926,0,0,0,0,0,
94.09,0.35426,1.6954,0,0,0,0,0,
94.59,0.35694,1.6986,0,0,0,0,0,
95.09,0.35961,1.7014,0,0,0,0,0,
95.59,0.36241,1.7043,0,0,0,0,0,
96.09,0.365,1.707,0,0,0,0,0,
96.59,0.36783,1.71,0,0,0,0,0,
97.09,0.37046,1.7127,0,0,0,0,0,
97.59,0.37325,1.7156,0,0,0,0,0,
98.09,0.376,1.7181,0,0,0,0,0,
98.59,0.37873,1.7209,0,0,0,0,0,
99.09,0.3815,1.7234,0,0,0,0,0,
99.59,0.38419,1.7263,0,0,0,0,0,
100.09,0.38699,1.7287,0,0,0,0,0,
100.59,0.38961,1.7313,0,0,0,0,0,
101.09,0.39249,1.7337,0,0,0,0,0,
101.59,0.39513,1.7363,0,0,0,0,0,
102.09,0.39789,1.7387,0,0,0,0,0,
102.59,0.40061,1.7413,0,0,0,0,0,
103.09,0.40326,1.744,0,0,0,0,0,
103.59,0.40617,1.7467,0,0,0,0,0,
104.09,0.4088,1.7493,0,0,0,0,0,
104.59,0.41167,1.7517,0,0,0,0,0,
105.09,0.41435,1.7543,0,0,0,0,0,
105.59,0.41716,1.7567,0,0,0,0,0,
106.09,0.41996,1.7593,0,0,0,0,0,
106.59,0.42275,1.7617,0,0,0,0,0,
107.09,0.42559,1.7643,0,0,0,0,0,
107.59,0.42828,1.7667,0,0,0,0,0,
108.09,0.43111,1.769,0,0,0,0,0,
108.59,0.43375,1.771,0,0,0,0,0,
109.09,0.43668,1.7733,0,0,0,0,0,
109.59,0.43936,1.7757,0,0,0,0,0,
110.09,0.44217,1.7783,0,0,0,0,0,
110.59,0.445,1.7807,0,0,0,0,0,
111.09,0.44769,1.783,0,0,0,0,0,
111.59,0.45058,1.7853,0,0,0,0,0,
112.09,0.45329,1.7874,0,0,0,0,0,
112.59,0.45622,1.7896,0,0,0,0,0,
113.09,0.45889,1.7914,0,0,0,0,0,
113.59,0.46176,1.7936,0,0,0,0,0,
114.09,0.46448,1.7957,0,0,0,0,0,
114.59,0.46735,1.798,0,0,0,0,0,
115.09,0.47022,1.8003,0,0,0,0,0,
115.59,0.47295,1.8027,0,0,0,0,0,
116.09,0.47577,1.805,0,0,0,0,0,
116.59,0.47845,1.8073,0,0,0,0,0,
117.09,0.48144,1.8097,0,0,0,0,0,
117.59,0.48414,1.812,0,0,0,0,0,
118.09,0.48709,1.814,0,0,0,0,0,
118.59,0.48987,1.816,0,0,0,0,0,
119.09,0.49267,1.818,0,0,0,0,0,
119.59,0.49553,1.82,0,0,0,0,0,
120.09,0.49831,1.822,0,0,0,0,0,
120.59,0.50127,1.8243,0,0,0,0,0,
121.09,0.50403,1.8264,0,0,0,0,0,
121.59,0.50699,1.8283,0,0,0,0,0,
122.09,0.5097,1.83,0,0,0,0,0,
122.59,0.51267,1.832,0,0,0,0,0,
123.09,0.5155,1.8343,0,0,0,0,0,
123.59,0.51832,1.8364,0,0,0,0,0,
124.09,0.52123,1.8383,0,0,0,0,0,
124.59,0.52399,1.84,0,0,0,0,0,
125.09,0.527,1.842,0,0,0,0,0,
125.59,0.52972,1.8443,0,0,0,0,0,
126.09,0.5327,1.8464,0,0,0,0,0,
126.59,0.53549,1.8483,0,0,0,0,0,
127.09,0.53843,1.85,0,0,0,0,0,
127.59,0.54127,1.852,0,0,0,0,0,
128.09,0.54416,1.854,0,0,0,0,0,
128.59,0.54701,1.856,0,0,0,0,0,
129.09,0.54982,1.858,0,0,0,0,0,
129.59,0.55277,1.8603,0,0,0,0,0,
130.09,0.55555,1.8621,0,0,0,0,0,
130.59,0.5586,1.8639,0,0,0,0,0,
131.09,0.56136,1.8657,0,0,0,0,0,
131.59,0.5643,1.8677,0,0,0,0,0,
132.09,0.56709,1.8693,0,0,0,0,0,
132.59,0.56998,1.871,0,0,0,0,0,
133.09,0.57287,1.8727,0,0,0,0,0,
133.59,0.57574,1.8743,0,0,0,0,0,
134.09,0.57864,1.8763,0,0,0,0,0,
134.59,0.58139,1.8787,0,0,0,0,0,
135.09,0.5844,1.8807,0,0,0,0,0,
135.59,0.58718,1.8823,0,0,0,0,0,
136.09,0.59021,1.884,0,0,0,0,0,
136.59,0.59295,1.8857,0,0,0,0,0,
137.09,0.59584,1.8873,0,0,0,0,0,
137.59,0.59869,1.889,0,0,0,0,0,
138.09,0.60148,1.8907,0,0,0,0,0,
138.59,0.60447,1.8926,0,0,0,0,0,
139.09,0.60724,1.8944,0,0,0,0,0,
139.59,0.61032,1.8963,0,0,0,0,0,
140.09,0.61306,1.8977,0,0,0,0,0,
140.59,0.61606,1.8993,0,0,0,0,0,
141.09,0.61889,1.901,0,0,0,0,0,
141.59,0.62182,1.903,0,0,0,0,0,
142.09,0.62467,1.9047,0,0,0,0,0,
142.59,0.62757,1.9063,0,0,0,0,0,
143.09,0.63054,1.908,0,0,0,0,0,
143.59,0.63333,1.9097,0,0,0,0,0,
144.09,0.63627,1.9113,0,0,0,0,0,
144.59,0.63913,1.9127,0,0,0,0,0,
145.09,0.64209,1.9143,0,0,0,0,0,
145.59,0.64484,1.916,0,0,0,0,0,
146.09,0.64782,1.9177,0,0,0,0,0,
146.59,0.6507,1.9193,0,0,0,0,0,
147.09,0.65362,1.921,0,0,0,0,0,
147.59,0.65653,1.9227,0,0,0,0,0,
148.09,0.65936,1.9243,0,0,0,0,0,
148.59,0.66234,1.926,0,0,0,0,0,
149.09,0.66524,1.9277,0,0,0,0,0,
149.59,0.66831,1.9293,0,0,0,0,0,
150.09,0.67102,1.931,0,0,0,0,0,
150.59,0.67416,1.9327,0,0,0,0,0,
151.09,0.677,1.9343,0,0,0,0,0,
151.59,0.67997,1.9357,0,0,0,0,0,
152.09,0.6829,1.9373,0,0,0,0,0,
152.59,0.68577,1.939,0,0,0,0,0,
153.09,0.68878,1.9407,0,0,0,0,0,
153.59,0.69163,1.942,0,0,0,0,0,
154.09,0.69464,1.9433,0,0,0,0,0,
154.59,0.69746,1.9447,0,0,0,0,0,
155.09,0.70056,1.9463,0,0,0,0,0,
155.59,0.70341,1.948,0,0,0,0,0,
156.09,0.7065,1.9497,0,0,0,0,0,
156.59,0.70931,1.9513,0,0,0,0,0,
157.09,0.71229,1.953,0,0,0,0,0,
157.59,0.71527,1.9547,0,0,0,0,0,
158.09,0.7182,1.956,0,0,0,0,0,
158.59,0.72114,1.9573,0,0,0,0,0,
159.09,0.72402,1.9587,0,0,0,0,0,
159.59,0.72706,1.9603,0,0,0,0,0,
160.09,0.72992,1.9617,0,0,0,0,0,
160.59,0.73309,1.9633,0,0,0,0,0,
161.09,0.73586,1.9647,0,0,0,0,0,
161.59,0.73898,1.9663,0,0,0,0,0,
162.09,0.74181,1.9677,0,0,0,0,0,
162.59,0.74486,1.9693,0,0,0,0,0,
163.09,0.74785,1.9707,0,0,0,0,0,
163.59,0.75069,1.972,0,0,0,0,0,
164.09,0.75369,1.9733,0,0,0,0,0,
164.59,0.75659,1.975,0,0,0,0,0,
165.09,0.75966,1.9764,0,0,0,0,0,
165.59,0.76256,1.9779,0,0,0,0,0,
166.09,0.76565,1.9794,0,0,0,0,0,
166.59,0.7685,1.981,0,0,0,0,0,
167.09,0.77155,1.982,0,0,0,0,0,
167.59,0.77446,1.9833,0,0,0,0,0,
168.09,0.77748,1.9847,0,0,0,0,0,
168.59,0.78045,1.9863,0,0,0,0,0,
169.09,0.78339,1.9877,0,0,0,0,0,
169.59,0.78634,1.9893,0,0,0,0,0,
170.09,0.78924,1.9907,0,0,0,0,0,
170.59,0.79229,1.992,0,0,0,0,0,
171.09,0.79514,1.9933,0,0,0,0,0,
171.59,0.79818,1.9944,0,0,0,0,0,
172.09,0.80104,1.9956,0,0,0,0,0,
172.59,0.80405,1.997,0,0,0,0,0,
173.09,0.807,1.9987,0,0,0,0,0,
173.59,0.81004,2,0,0,0,0,0,
174.09,0.81297,2.0013,0,0,0,0,0,
174.59,0.81596,2.0027,0,0,0,0,0,
175.09,0.81895,2.004,0,0,0,0,0,
175.59,0.82183,2.0053,0,0,0,0,0,
176.09,0.82492,2.0067,0,0,0,0,0,
176.59,0.82781,2.008,0,0,0,0,0,
177.09,0.83083,2.009,0,0,0,0,0,
177.59,0.83369,2.0103,0,0,0,0,0,
178.09,0.83667,2.0117,0,0,0,0,0,
178.59,0.83963,2.0133,0,0,0,0,0,
179.09,0.84259,2.0147,0,0,0,0,0,
179.59,0.84553,2.016,0,0,0,0,0,
180.09,0.84847,2.017,0,0,0,0,0,
180.59,0.85145,2.018,0,0,0,0,0,
181.09,0.85426,2.0193,0,0,0,0,0,
181.59,0.85736,2.0207,0,0,0,0,0,
182.09,0.86013,2.022,0,0,0,0,0,
182.59,0.86321,2.023,0,0,0,0,0,
183.09,0.86603,2.0243,0,0,0,0,0,
183.59,0.86905,2.0257,0,0,0,0,0,
184.09,0.87197,2.0273,0,0,0,0,0,
184.59,0.87493,2.0287,0,0,0,0,0,
185.09,0.87792,2.03,0,0,0,0,0,
185.59,0.88087,2.031,0,0,0,0,0,
186.09,0.88389,2.032,0,0,0,0,0,
186.59,0.88669,2.033,0,0,0,0,0,
187.09,0.88985,2.034,0,0,0,0,0,
187.59,0.89271,2.0353,0,0,0,0,0,
188.09,0.8957,2.0367,0,0,0,0,0,
188.59,0.8986,2.038,0,0,0,0,0,
189.09,0.90155,2.0393,0,0,0,0,0,
189.59,0.90448,2.0407,0,0,0,0,0,
190.09,0.90737,2.042,0,0,0,0,0,
190.59,0.91046,2.043,0,0,0,0,0,
191.09,0.91334,2.044,0,0,0,0,0,
191.59,0.91642,2.0453,0,0,0,0,0,
192.09,0.9193,2.0467,0,0,0,0,0,
192.59,0.92244,2.0483,0,0,0,0,0,
193.09,0.92528,2.0494,0,0,0,0,0,
193.59,0.92834,2.0503,0,0,0,0,0,
194.09,0.93124,2.0513,0,0,0,0,0,
194.59,0.93416,2.0524,0,0,0,0,0,
195.09,0.93717,2.0536,0,0,0,0,0,
195.59,0.94016,2.0547,0,0,0,0,0,
196.09,0.9432,2.0563,0,0,0,0,0,
196.59,0.94596,2.0577,0,0,0,0,0,
197.09,0.94912,2.059,0,0,0,0,0,
197.59,0.95205,2.06,0,0,0,0,0,
198.09,0.95516,2.061,0,0,0,0,0,
198.59,0.95808,2.0623,0,0,0,0,0,
199.09,0.96115,2.0634,0,0,0,0,0,
199.59,0.96406,2.0646,0,0,0,0,0,
200.09,0.96716,2.0657,0,0,0,0,0,
200.59,0.97013,2.067,0,0,0,0,0,
201.09,0.97311,2.068,0,0,0,0,0,
201.59,0.97619,2.069,0,0,0,0,0,
202.09,0.9791,2.07,0,0,0,0,0,
202.59,0.98218,2.0713,0,0,0,0,0,
203.09,0.98504,2.0727,0,0,0,0,0,
203.59,0.98815,2.074,0,0,0,0,0,
204.09,0.9911,2.075,0,0,0,0,0,
204.59,0.99419,2.076,0,0,0,0,0,
205.09,0.99705,2.077,0,0,0,0,0,
205.59,1.0002,2.0783,0,0,0,0,0,
206.09,1.0031,2.0797,0,0,0,0,0,
206.59,1.0061,2.081,0,0,0,0,0,
207.09,1.0092,2.082,0,0,0,0,0,
207.59,1.0122,2.083,0,0,0,0,0,
208.09,1.0153,2.084,0,0,0,0,0,
208.59,1.0182,2.0853,0,0,0,0,0,
209.09,1.0214,2.0867,0,0,0,0,0,
209.59,1.0243,2.088,0,0,0,0,0,
210.09,1.0275,2.089,0,0,0,0,0,
210.59,1.0304,2.09,0,0,0,0,0,
211.09,1.0335,2.091,0,0,0,0,0,
211.59,1.0365,2.092,0,0,0,0,0,
212.09,1.0396,2.093,0,0,0,0,0,
212.59,1.0426,2.0943,0,0,0,0,0,
213.09,1.0456,2.0954,0,0,0,0,0,
213.59,1.0487,2.0966,0,0,0,0,0,
214.09,1.0516,2.0977,0,0,0,0,0,
214.59,1.0547,2.099,0,0,0,0,0,
215.09,1.0576,2.1,0,0,0,0,0,
215.59,1.0608,2.101,0,0,0,0,0,
216.09,1.0637,2.102,0,0,0,0,0,
216.59,1.0669,2.103,0,0,0,0,0,
217.09,1.0698,2.1043,0,0,0,0,0,
217.59,1.0729,2.1054,0,0,0,0,0,
218.09,1.076,2.1066,0,0,0,0,0,
218.59,1.079,2.1077,0,0,0,0,0,
219.09,1.0822,2.109,0,0,0,0,0,
219.59,1.0852,2.11,0,0,0,0,0,
220.09,1.0883,2.111,0,0,0,0,0,
220.59,1.0913,2.112,0,0,0,0,0,
221.09,1.0944,2.113,0,0,0,0,0,
221.59,1.0974,2.1143,0,0,0,0,0,
222.09,1.1006,2.1154,0,0,0,0,0,
222.59,1.1036,2.1166,0,0,0,0,0,
223.09,1.1067,2.1174,0,0,0,0,0,
223.59,1.1097,2.1186,0,0,0,0,0,
224.09,1.1129,2.1197,0,0,0,0,0,
224.59,1.1159,2.121,0,0,0,0,0,
225.09,1.119,2.122,0,0,0,0,0,
225.59,1.122,2.123,0,0,0,0,0,
226.09,1.1251,2.124,0,0,0,0,0,
226.59,1.1283,2.125,0,0,0,0,0,
227.09,1.1313,2.126,0,0,0,0,0,
227.59,1.1345,2.1273,0,0,0,0,0,
228.09,1.1375,2.1284,0,0,0,0,0,
228.59,1.1406,2.1293,0,0,0,0,0,
229.09,1.1436,2.13,0,0,0,0,0,
229.59,1.1468,2.131,0,0,0,0,0,
230.09,1.1498,2.132,0,0,0,0,0,
230.59,1.153,2.1333,0,0,0,0,0,
231.09,1.156,2.1344,0,0,0,0,0,
231.59,1.1592,2.1356,0,0,0,0,0,
232.09,1.1621,2.1367,0,0,0,0,0,
232.59,1.1654,2.138,0,0,0,0,0,
233.09,1.1684,2.139,0,0,0,0,0,
233.59,1.1715,2.14,0,0,0,0,0,
234.09,1.1747,2.141,0,0,0,0,0,
234.59,1.1777,2.142,0,0,0,0,0,
235.09,1.1809,2.143,0,0,0,0,0,
235.59,1.184,2.144,0,0,0,0,0,
236.09,1.1872,2.145,0,0,0,0,0,
236.59,1.1902,2.1457,0,0,0,0,0,
237.09,1.1934,2.1466,0,0,0,0,0,
237.59,1.1963,2.1477,0,0,0,0,0,
238.09,1.1996,2.149,0,0,0,0,0,
238.59,1.2025,2.15,0,0,0,0,0,
239.09,1.2057,2.151,0,0,0,0,0,
239.59,1.2088,2.152,0,0,0,0,0,
240.09,1.2119,2.153,0,0,0,0,0,
240.59,1.215,2.154,0,0,0,0,0,
241.09,1.2181,2.155,0,0,0,0,0,
241.59,1.2212,2.156,0,0,0,0,0,
242.09,1.2243,2.157,0,0,0,0,0,
242.59,1.2275,2.158,0,0,0,0,0,
243.09,1.2305,2.159,0,0,0,0,0,
243.59,1.2337,2.16,0,0,0,0,0,
244.09,1.2367,2.161,0,0,0,0,0,
244.59,1.24,2.162,0,0,0,0,0,
245.09,1.2429,2.163,0,0,0,0,0,
245.59,1.2461,2.1637,0,0,0,0,0,
246.09,1.2491,2.1646,0,0,0,0,0,
246.59,1.2523,2.1657,0,0,0,0,0,
247.09,1.2553,2.167,0,0,0,0,0,
247.59,1.2585,2.168,0,0,0,0,0,
248.09,1.2615,2.169,0,0,0,0,0,
248.59,1.2646,2.1697,0,0,0,0,0,
249.09,1.2677,2.1706,0,0,0,0,0,
249.59,1.2707,2.1714,0,0,0,0,0,
250.09,1.2739,2.1723,0,0,0,0,0,
250.59,1.2768,2.1733,0,0,0,0,0,
251.09,1.2801,2.1747,0,0,0,0,0,
251.59,1.2831,2.1757,0,0,0,0,0,
252.09,1.2863,2.1766,0,0,0,0,0,
252.59,1.2892,2.1774,0,0,0,0,0,
253.09,1.2925,2.1786,0,0,0,0,0,
253.59,1.2955,2.1794,0,0,0,0,0,
254.09,1.2987,2.1806,0,0,0,0,0,
254.59,1.3017,2.1814,0,0,0,0,0,
255.09,1.3048,2.1826,0,0,0,0,0,
255.59,1.3079,2.1834,0,0,0,0,0,
256.09,1.311,2.1843,0,0,0,0,0,
256.59,1.3141,2.185,0,0,0,0,0,
257.09,1.3172,2.186,0,0,0,0,0,
257.59,1.3203,2.187,0,0,0,0,0,
258.09,1.3233,2.188,0,0,0,0,0,
258.59,1.3266,2.189,0,0,0,0,0,
259.09,1.3296,2.19,0,0,0,0,0,
259.59,1.3328,2.191,0,0,0,0,0,
260.09,1.3358,2.192,0,0,0,0,0,
260.59,1.3389,2.193,0,0,0,0,0,
261.09,1.342,2.194,0,0,0,0,0,
261.59,1.3452,2.195,0,0,0,0,0,
262.09,1.3482,2.196,0,0,0,0,0,
262.59,1.3514,2.197,0,0,0,0,0,
263.09,1.3545,2.1977,0,0,0,0,0,
263.59,1.3575,2.1986,0,0,0,0,0,
264.09,1.3607,2.1997,0,0,0,0,0,
264.59,1.3637,2.201,0,0,0,0,0,
265.09,1.3669,2.202,0,0,0,0,0,
265.59,1.3699,2.2027,0,0,0,0,0,
266.09,1.3732,2.2033,0,0,0,0,0,
266.59,1.3762,2.204,0,0,0,0,0,
267.09,1.3795,2.205,0,0,0,0,0,
267.59,1.3826,2.206,0,0,0,0,0,
268.09,1.3857,2.207,0,0,0,0,0,
268.59,1.3888,2.208,0,0,0,0,0,
269.09,1.3921,2.209,0,0,0,0,0,
269.59,1.3953,2.21,0,0,0,0,0,
270.09,1.3984,2.211,0,0,0,0,0,
270.59,1.4016,2.212,0,0,0,0,0,
271.09,1.4046,2.213,0,0,0,0,0,
271.59,1.4079,2.2137,0,0,0,0,0,
272.09,1.4109,2.2146,0,0,0,0,0,
272.59,1.414,2.2154,0,0,0,0,0,
273.09,1.4171,2.2163,0,0,0,0,0,
273.59,1.4204,2.217,0,0,0,0,0,
274.09,1.4233,2.218,0,0,0,0,0,
274.59,1.4266,2.219,0,0,0,0,0,
275.09,1.4297,2.22,0,0,0,0,0,
275.59,1.433,2.221,0,0,0,0,0,
276.09,1.4361,2.222,0,0,0,0,0,
276.59,1.4392,2.223,0,0,0,0,0,
277.09,1.4424,2.224,0,0,0,0,0,
277.59,1.4455,2.225,0,0,0,0,0,
278.09,1.4487,2.2257,0,0,0,0,0,
278.59,1.4519,2.2266,0,0,0,0,0,
279.09,1.4551,2.2274,0,0,0,0,0,
279.59,1.4581,2.2283,0,0,0,0,0,
280.09,1.4615,2.229,0,0,0,0,0,
280.59,1.4645,2.23,0,0,0,0,0,
281.09,1.4678,2.231,0,0,0,0,0,
281.59,1.4708,2.232,0,0,0,0,0,
282.09,1.4741,2.233,0,0,0,0,0,
282.59,1.4771,2.2337,0,0,0,0,0,
283.09,1.4804,2.2346,0,0,0,0,0,
283.59,1.4834,2.2354,0,0,0,0,0,
284.09,1.4867,2.2363,0,0,0,0,0,
284.59,1.4898,2.237,0,0,0,0,0,
285.09,1.493,2.238,0,0,0,0,0,
285.59,1.4962,2.239,0,0,0,0,0,
286.09,1.4993,2.24,0,0,0,0,0,
286.59,1.5026,2.241,0,0,0,0,0,
287.09,1.5057,2.242,0,0,0,0,0,
287.59,1.5089,2.2427,0,0,0,0,0,
288.09,1.5119,2.2433,0,0,0,0,0,
288.59,1.5152,2.244,0,0,0,0,0,
289.09,1.5183,2.245,0,0,0,0,0,
289.59,1.5215,2.246,0,0,0,0,0,
290.09,1.5244,2.247,0,0,0,0,0,
290.59,1.5277,2.248,0,0,0,0,0,
291.09,1.5309,2.249,0,0,0,0,0,
291.59,1.5341,2.25,0,0,0,0,0,
292.09,1.5372,2.251,0,0,0,0,0,
292.59,1.5403,2.2517,0,0,0,0,0,
293.09,1.5436,2.2523,0,0,0,0,0,
293.59,1.5467,2.253,0,0,0,0,0,
294.09,1.55,2.254,0,0,0,0,0,
294.59,1.553,2.255,0,0,0,0,0,
295.09,1.5563,2.256,0,0,0,0,0,
295.59,1.5593,2.257,0,0,0,0,0,
296.09,1.5625,2.2577,0,0,0,0,0,
296.59,1.5656,2.2586,0,0,0,0,0,
297.09,1.5689,2.2594,0,0,0,0,0,
297.59,1.5719,2.2603,0,0,0,0,0,
298.09,1.5751,2.261,0,0,0,0,0,
298.59,1.5783,2.262,0,0,0,0,0,
299.09,1.5814,2.2627,0,0,0,0,0,
299.59,1.5846,2.2633,0,0,0,0,0,
300.09,1.5877,2.264,0,0,0,0,0,
300.59,1.5909,2.2653,0,0,0,0,0,
301.09,1.5939,2.2664,0,0,0,0,0,
301.59,1.5973,2.2673,0,0,0,0,0,
302.09,1.6003,2.268,0,0,0,0,0,
302.59,1.6037,2.269,0,0,0,0,0,
303.09,1.6068,2.27,0,0,0,0,0,
303.59,1.61,2.2707,0,0,0,0,0,
304.09,1.6132,2.2713,0,0,0,0,0,
304.59,1.6164,2.2723,0,0,0,0,0,
305.09,1.6195,2.2734,0,0,0,0,0,
305.59,1.6228,2.2743,0,0,0,0,0,
306.09,1.6258,2.2747,0,0,0,0,0,
306.59,1.6291,2.2756,0,0,0,0,0,
307.09,1.6323,2.2767,0,0,0,0,0,
307.59,1.6354,2.278,0,0,0,0,0,
308.09,1.6386,2.2787,0,0,0,0,0,
308.59,1.6418,2.2793,0,0,0,0,0,
309.09,1.645,2.28,0,0,0,0,0,
309.59,1.648,2.2807,0,0,0,0,0,
310.09,1.6514,2.2816,0,0,0,0,0,
310.59,1.6545,2.2827,0,0,0,0,0,
