Time[s],Displacement longi[mm],Force[kN],N/A,N/A,N/A,Thickness[mm],OuterWidth[mm],N/A
0.59,0,-0.011828,0,0,1.5001,20,0
1.09,3.7e-05,-0.0069272,0,0,0,0,0
1.59,0.001426,-0.0005601,0,0,0,0,0
2.09,0.002573,0.01929,0,0,0,0,0
2.59,0.003627,0.045996,0,0,0,0,0
3.09,0.005027,0.072859,0,0,0,0,0
3.59,0.005764,0.095564,0,0,0,0,0
4.09,0.006668,0.11629,0,0,0,0,0
4.59,0.007329,0.13414,0,0,0,0,0
5.09,0.008021,0.15143,0,0,0,0,0
5.59,0.008798,0.166,0,0,0,0,0
6.09,0.009427,0.18215,0,0,0,0,0
6.59,0.010339,0.19785,0,0,0,0,0
7.09,0.01115,0.21429,0,0,0,0,0
7.59,0.011865,0.22985,0,0,0,0,0
8.09,0.012532,0.248,0,0,0,0,0
8.59,0.013439,0.26485,0,0,0,0,0
9.09,0.014116,0.281,0,0,0,0,0
9.59,0.014785,0.29585,0,0,0,0,0
10.09,0.015583,0.31215,0,0,0,0,0
10.59,0.016411,0.32785,0,0,0,0,0
11.09,0.017117,0.34415,0,0,0,0,0
11.59,0.017768,0.35985,0,0,0,0,0
12.09,0.018493,0.37586,0,0,0,0,0
12.59,0.019339,0.39028,0,0,0,0,0
13.09,0.020127,0.40586,0,0,0,0,0
13.59,0.020878,0.42228,0,0,0,0,0
14.09,0.021688,0.43986,0,0,0,0,0
14.59,0.02258,0.455,0,0,0,0,0
15.09,0.023256,0.47086,0,0,0,0,0
15.59,0.024034,0.48614,0,0,0,0,0
16.09,0.024953,0.502,0,0,0,0,0
16.59,0.025837,0.51685,0,0,0,0,0
17.09,0.02664,0.534,0,0,0,0,0
17.59,0.027463,0.55014,0,0,0,0,0
18.09,0.028401,0.566,0,0,0,0,0
18.59,0.029205,0.58085,0,0,0,0,0
19.09,0.030016,0.59715,0,0,0,0,0
19.59,0.031017,0.61285,0,0,0,0,0
20.09,0.03201,0.62915,0,0,0,0,0
20.59,0.032811,0.64371,0,0,0,0,0
21.09,0.033769,0.65915,0,0,0,0,0
21.59,0.034783,0.675,0,0,0,0,0
22.09,0.03565,0.69186,0,0,0,0,0
22.59,0.036615,0.70714,0,0,0,0,0
23.09,0.037673,0.72286,0,0,0,0,0
23.59,0.038707,0.737,0,0,0,0,0
24.09,0.039681,0.75215,0,0,0,0,0
24.59,0.040678,0.76685,0,0,0,0,0
25.09,0.041842,0.78286,0,0,0,0,0
25.59,0.042876,0.798,0,0,0,0,0
26.09,0.043944,0.81415,0,0,0,0,0
26.59,0.045207,0.82771,0,0,0,0,0
27.09,0.046351,0.84129,0,0,0,0,0
27.59,0.047411,0.85457,0,0,0,0,0
28.09,0.048663,0.86915,0,0,0,0,0
28.59,0.04987,0.88285,0,0,0,0,0
29.09,0.051031,0.89686,0,0,0,0,0
29.59,0.052301,0.91043,0,0,0,0,0
30.09,0.053725,0.92457,0,0,0,0,0
30.59,0.054939,0.93814,0,0,0,0,0
31.09,0.056245,0.95157,0,0,0,0,0
31.59,0.057743,0.96414,0,0,0,0,0
32.09,0.059072,0.97715,0,0,0,0,0
32.59,0.060375,0.989,0,0,0,0,0
33.09,0.061982,1.0007,0,0,0,0,0
33.59,0.063382,1.0121,0,0,0,0,0
34.09,0.064882,1.0254,0,0,0,0,0
34.59,0.066534,1.0377,0,0,0,0,0
35.09,0.068021,1.0503,0,0,0,0,0
35.59,0.069643,1.0617,0,0,0,0,0
36.09,0.07132,1.0731,0,0,0,0,0
36.59,0.072846,1.0834,0,0,0,0,0
37.09,0.074519,1.0946,0,0,0,0,0
37.59,0.076357,1.1054,0,0,0,0,0
38.09,0.078009,1.1163,0,0,0,0,0
38.59,0.079923,1.1259,0,0,0,0,0
39.09,0.081699,1.136,0,0,0,0,0
39.59,0.083441,1.1463,0,0,0,0,0
40.09,0.085479,1.1571,0,0,0,0,0
40.59,0.087282,1.1671,0,0,0,0,0
41.09,0.089182,1.1773,0,0,0,0,0
41.59,0.09122,1.1861,0,0,0,0,0
42.09,0.093003,1.1954,0,0,0,0,0
42.59,0.094999,1.2043,0,0,0,0,0
43.09,0.097051,1.2137,0,0,0,0,0
43.59,0.098937,1.2229,0,0,0,0,0
44.09,0.10114,1.2323,0,0,0,0,0
44.59,0.10313,1.2401,0,0,0,0,0
45.09,0.10512,1.2481,0,0,0,0,0
45.59,0.10735,1.2561,0,0,0,0,0
46.09,0.10934,1.2646,0,0,0,0,0
46.59,0.11153,1.2724,0,0,0,0,0
47.09,0.1137,1.2809,0,0,0,0,0
47.59,0.11576,1.2883,0,0,0,0,0
48.09,0.11801,1.2957,0,0,0,0,0
48.59,0.12012,1.3034,0,0,0,0,0
49.09,0.12238,1.312,0,0,0,0,0
49.59,0.12462,1.3194,0,0,0,0,0
50.09,0.12671,1.3269,0,0,0,0,0
50.59,0.1291,1.3336,0,0,0,0,0
51.09,0.13128,1.3407,0,0,0,0,0
51.59,0.13356,1.3473,0,0,0,0,0
52.09,0.13593,1.3547,0,0,0,0,0
52.59,0.1381,1.3613,0,0,0,0,0
53.09,0.14054,1.3684,0,0,0,0,0
53.59,0.14275,1.3749,0,0,0,0,0
54.09,0.14502,1.3816,0,0,0,0,0
54.59,0.14742,1.3877,0,0,0,0,0
55.09,0.14966,1.3943,0,0,0,0,0
55.59,0.15209,1.4004,0,0,0,0,0
56.09,0.15433,1.4071,0,0,0,0,0
56.59,0.15676,1.413,0,0,0,0,0
57.09,0.15921,1.419,0,0,0,0,0
57.59,0.16155,1.4249,0,0,0,0,0
58.09,0.16407,1.4316,0,0,0,0,0
58.59,0.1664,1.4374,0,0,0,0,0
59.09,0.16885,1.4433,0,0,0,0,0
59.59,0.17132,1.4484,0,0,0,0,0
60.09,0.17373,1.4539,0,0,0,0,0
60.59,0.17632,1.4594,0,0,0,0,0
61.09,0.17868,1.4656,0,0,0,0,0
61.59,0.18122,1.4711,0,0,0,0,0
62.09,0.18363,1.4769,0,0,0,0,0
62.59,0.18605,1.4819,0,0,0,0,0
63.09,0.18866,1.4871,0,0,0,0,0
63.59,0.19104,1.4921,0,0,0,0,0
64.09,0.19367,1.4976,0,0,0,0,0
64.59,0.1961,1.5024,0,0,0,0,0
65.09,0.19854,1.5079,0,0,0,0,0
65.59,0.2012,1.5129,0,0,0,0,0
66.09,0.20367,1.5179,0,0,0,0,0
66.59,0.20631,1.5224,0,0,0,0,0
67.09,0.20878,1.5276,0,0,0,0,0
67.59,0.21141,1.5324,0,0,0,0,0
68.09,0.214,1.5376,0,0,0,0,0
68.59,0.2166,1.5421,0,0,0,0,0
69.09,0.2193,1.5469,0,0,0,0,0
69.59,0.22177,1.5511,0,0,0,0,0
70.09,0.22451,1.5559,0,0,0,0,0
70.59,0.22705,1.5601,0,0,0,0,0
71.09,0.22977,1.5649,0,0,0,0,0
71.59,0.23242,1.5691,0,0,0,0,0
72.09,0.23497,1.5736,0,0,0,0,0
72.59,0.23779,1.5777,0,0,0,0,0
73.09,0.2403,1.5823,0,0,0,0,0
73.59,0.24313,1.5867,0,0,0,0,0
74.09,0.24566,1.5913,0,0,0,0,0
74.59,0.2483,1.5954,0,0,0,0,0
75.09,0.25107,1.5996,0,0,0,0,0
75.59,0.25361,1.6037,0,0,0,0,0
76.09,0.25637,1.608,0,0,0,0,0
76.59,0.25894,1.612,0,0,0,0,0
77.09,0.2617,1.616,0,0,0,0,0
77.59,0.26439,1.6197,0,0,0,0,0
78.09,0.26706,1.6236,0,0,0,0,0
78.59,0.26987,1.6277,0,0,0,0,0
79.09,0.27249,1.632,0,0,0,0,0
79.59,0.27537,1.636,0,0,0,0,0
80.09,0.27799,1.64,0,0,0,0,0
80.59,0.28082,1.6437,0,0,0,0,0
81.09,0.2835,1.6476,0,0,0,0,0
81.59,0.28631,1.6514,0,0,0,0,0
82.09,0.28911,1.655,0,0,0,0,0
82.59,0.2917,1.6583,0,0,0,0,0
83.09,0.29469,1.662,0,0,0,0,0
83.59,0.29732,1.666,0,0,0,0,0
84.09,0.30028,1.6697,0,0,0,0,0
84.59,0.30296,1.6733,0,0,0,0,0
85.09,0.30582,1.6767,0,0,0,0,0
85.59,0.30861,1.68,0,0,0,0,0
86.09,0.31138,1.6833,0,0,0,0,0
86.59,0.31425,1.6864,0,0,0,0,0
87.09,0.317,1.6899,0,0,0,0,0
87.59,0.31992,1.6934,0,0,0,0,0
88.09,0.32256,1.697,0,0,0,0,0
88.59,0.32545,1.7,0,0,0,0,0
89.09,0.32821,1.7033,0,0,0,0,0
89.59,0.33111,1.7067,0,0,0,0,0
90.09,0.33391,1.7103,0,0,0,0,0
90.59,0.3367,1.7137,0,0,0,0,0
91.09,0.33961,1.717,0,0,0,0,0
91.59,0.34238,1.7197,0,0,0,0,0
92.09,0.34531,1.7226,0,0,0,0,0
92.59,0.34808,1.7257,0,0,0,0,0
93.09,0.35099,1.7287,0,0,0,0,0
93.59,0.35383,1.7316,0,0,0,0,0
94.09,0.35671,1.7347,0,0,0,0,0
94.59,0.35962,1.738,0,0,0,0,0
95.09,0.36246,1.741,0,0,0,0,0
95.59,0.36542,1.744,0,0,0,0,0
96.09,0.36816,1.7467,0,0,0,0,0
96.59,0.37117,1.7496,0,0,0,0,0
97.09,0.37399,1.7524,0,0,0,0,0
97.59,0.37698,1.7556,0,0,0,0,0
98.09,0.37984,1.7584,0,0,0,0,0
98.59,0.3827,1.7613,0,0,0,0,0
99.09,0.38559,1.764,0,0,0,0,0
99.59,0.38838,1.767,0,0,0,0,0
100.09,0.39147,1.7697,0,0,0,0,0
100.59,0.39422,1.7723,0,0,0,0,0
101.09,0.39728,1.775,0,0,0,0,0
101.59,0.40007,1.778,0,0,0,0,0
102.09,0.40311,1.7807,0,0,0,0,0
102.59,0.40598,1.7836,0,0,0,0,0
103.09,0.4089,1.7864,0,0,0,0,0
103.59,0.4119,1.789,0,0,0,0,0
104.09,0.41469,1.791,0,0,0,0,0
104.59,0.41774,1.7936,0,0,0,0,0
105.09,0.42051,1.7964,0,0,0,0,0
105.59,0.42357,1.7996,0,0,0,0,0
106.09,0.42644,1.8021,0,0,0,0,0
106.59,0.42942,1.8046,0,0,0,0,0
107.09,0.43234,1.8067,0,0,0,0,0
107.59,0.43523,1.8096,0,0,0,0,0
108.09,0.4382,1.8121,0,0,0,0,0
108.59,0.44106,1.8146,0,0,0,0,0
109.09,0.44414,1.8167,0,0,0,0,0
109.59,0.44696,1.8193,0,0,0,0,0
110.09,0.45001,1.8217,0,0,0,0,0
110.59,0.45288,1.8243,0,0,0,0,0
111.09,0.45593,1.8267,0,0,0,0,0
111.59,0.45882,1.8293,0,0,0,0,0
112.09,0.46172,1.8317,0,0,0,0,0
112.59,0.46481,1.834,0,0,0,0,0
113.09,0.46769,1.8363,0,0,0,0,0
113.59,0.47071,1.839,0,0,0,0,0
114.09,0.47365,1.8414,0,0,0,0,0
114.59,0.47675,1.8436,0,0,0,0,0
115.09,0.47965,1.8457,0,0,0,0,0
115.59,0.48274,1.8483,0,0,0,0,0
116.09,0.48558,1.8507,0,0,0,0,0
116.59,0.4886,1.8527,0,0,0,0,0
117.09,0.49163,1.8546,0,0,0,0,0
117.59,0.49462,1.8567,0,0,0,0,0
118.09,0.49769,1.859,0,0,0,0,0
118.59,0.50058,1.861,0,0,0,0,0
119.09,0.50367,1.8633,0,0,0,0,0
119.59,0.50655,1.8654,0,0,0,0,0
120.09,0.5097,1.8676,0,0,0,0,0
120.59,0.51267,1.8697,0,0,0,0,0
121.09,0.51576,1.8723,0,0,0,0,0
121.59,0.51867,1.8747,0,0,0,0,0
122.09,0.52172,1.877,0,0,0,0,0
122.59,0.5247,1.8787,0,0,0,0,0
123.09,0.52764,1.8806,0,0,0,0,0
123.59,0.53074,1.8827,0,0,0,0,0
124.09,0.53363,1.885,0,0,0,0,0
124.59,0.53678,1.887,0,0,0,0,0
125.09,0.53969,1.889,0,0,0,0,0
125.59,0.54285,1.8907,0,0,0,0,0
126.09,0.54575,1.8926,0,0,0,0,0
126.59,0.54894,1.8947,0,0,0,0,0
127.09,0.55184,1.8973,0,0,0,0,0
127.58,0.55495,1.8994,0,0,0,0,0
128.09,0.55795,1.901,0,0,0,0,0
128.59,0.56095,1.9026,0,0,0,0,0
129.09,0.56407,1.9047,0,0,0,0,0
129.59,0.56699,1.907,0,0,0,0,0
130.09,0.5701,1.909,0,0,0,0,0
130.59,0.57302,1.911,0,0,0,0,0
131.09,0.57625,1.9127,0,0,0,0,0
131.59,0.57913,1.9146,0,0,0,0,0
132.09,0.58221,1.9164,0,0,0,0,0
132.59,0.58527,1.9186,0,0,0,0,0
133.09,0.58827,1.9204,0,0,0,0,0
133.59,0.59127,1.9223,0,0,0,0,0
134.09,0.59425,1.9237,0,0,0,0,0
134.59,0.59742,1.9256,0,0,0,0,0
135.09,0.6004,1.9274,0,0,0,0,0
135.59,0.60358,1.9293,0,0,0,0,0
136.09,0.60649,1.931,0,0,0,0,0
136.59,0.60964,1.9327,0,0,0,0,0
137.09,0.61256,1.9346,0,0,0,0,0
137.59,0.61562,1.9367,0,0,0,0,0
138.09,0.61868,1.9387,0,0,0,0,0
138.59,0.62174,1.9403,0,0,0,0,0
139.09,0.62475,1.942,0,0,0,0,0
139.59,0.62781,1.944,0,0,0,0,0
140.09,0.63094,1.9457,0,0,0,0,0
140.59,0.63379,1.9473,0,0,0,0,0
141.09,0.63699,1.949,0,0,0,0,0
141.59,0.63981,1.951,0,0,0,0,0
142.09,0.64298,1.9527,0,0,0,0,0
142.59,0.64589,1.9543,0,0,0,0,0
143.09,0.64913,1.9557,0,0,0,0,0
143.59,0.65209,1.9573,0,0,0,0,0
144.09,0.65509,1.959,0,0,0,0,0
144.59,0.65821,1.961,0,0,0,0,0
145.09,0.66124,1.9627,0,0,0,0,0
145.59,0.66438,1.9643,0,0,0,0,0
146.09,0.6674,1.966,0,0,0,0,0
146.59,0.67057,1.968,0,0,0,0,0
147.09,0.67349,1.9697,0,0,0,0,0
147.59,0.67673,1.9713,0,0,0,0,0
148.09,0.6797,1.973,0,0,0,0,0
148.59,0.68281,1.9747,0,0,0,0,0
149.09,0.68579,1.9763,0,0,0,0,0
149.59,0.68894,1.9777,0,0,0,0,0
150.09,0.69208,1.979,0,0,0,0,0
150.59,0.69508,1.9806,0,0,0,0,0
151.09,0.69813,1.9824,0,0,0,0,0
151.59,0.7012,1.984,0,0,0,0,0
152.09,0.70433,1.9853,0,0,0,0,0
152.59,0.70733,1.9867,0,0,0,0,0
153.09,0.71052,1.9883,0,0,0,0,0
153.59,0.71354,1.99,0,0,0,0,0
154.09,0.71674,1.9917,0,0,0,0,0
154.59,0.71981,1.9933,0,0,0,0,0
155.09,0.72294,1.995,0,0,0,0,0
155.59,0.72599,1.9964,0,0,0,0,0
156.09,0.7291,1.9979,0,0,0,0,0
156.59,0.73222,1.9994,0,0,0,0,0
157.09,0.7353,2.0013,0,0,0,0,0
157.59,0.73843,2.0027,0,0,0,0,0
158.09,0.74145,2.0043,0,0,0,0,0
158.59,0.74476,2.0057,0,0,0,0,0
159.09,0.74775,2.007,0,0,0,0,0
159.59,0.75099,2.0083,0,0,0,0,0
160.09,0.75402,2.01,0,0,0,0,0
160.59,0.75721,2.0117,0,0,0,0,0
161.09,0.76027,2.0133,0,0,0,0,0
161.59,0.7635,2.0147,0,0,0,0,0
162.09,0.76651,2.016,0,0,0,0,0
162.59,0.7697,2.0173,0,0,0,0,0
163.09,0.77273,2.0187,0,0,0,0,0
163.59,0.77583,2.0203,0,0,0,0,0
164.09,0.77899,2.0217,0,0,0,0,0
164.59,0.78207,2.0233,0,0,0,0,0
165.09,0.78529,2.0247,0,0,0,0,0
165.59,0.78827,2.026,0,0,0,0,0
166.09,0.79144,2.027,0,0,0,0,0
166.59,0.7944,2.0283,0,0,0,0,0
167.09,0.79763,2.0297,0,0,0,0,0
167.59,0.80064,2.0313,0,0,0,0,0
168.09,0.80375,2.0327,0,0,0,0,0
168.59,0.80683,2.0343,0,0,0,0,0
169.09,0.81002,2.0357,0,0,0,0,0
169.59,0.81315,2.037,0,0,0,0,0
170.09,0.81623,2.0383,0,0,0,0,0
170.59,0.81944,2.0397,0,0,0,0,0
171.09,0.82252,2.041,0,0,0,0,0
171.59,0.82571,2.0423,0,0,0,0,0
172.09,0.82878,2.0437,0,0,0,0,0
172.59,0.83201,2.0453,0,0,0,0,0
173.09,0.83497,2.0467,0,0,0,0,0
173.59,0.83824,2.048,0,0,0,0,0
174.09,0.8412,2.049,0,0,0,0,0
174.59,0.84448,2.0503,0,0,0,0,0
175.09,0.84751,2.0517,0,0,0,0,0
175.59,0.85069,2.0533,0,0,0,0,0
176.09,0.85383,2.0547,0,0,0,0,0
176.59,0.85694,2.056,0,0,0,0,0
177.09,0.86003,2.057,0,0,0,0,0
177.59,0.86311,2.0583,0,0,0,0,0
178.09,0.86637,2.0597,0,0,0,0,0
178.59,0.86935,2.061,0,0,0,0,0
179.09,0.87262,2.0623,0,0,0,0,0
179.59,0.87559,2.0637,0,0,0,0,0
180.09,0.87886,2.065,0,0,0,0,0
180.59,0.88197,2.0663,0,0,0,0,0
181.09,0.88523,2.0677,0,0,0,0,0
181.59,0.88826,2.069,0,0,0,0,0
182.09,0.89141,2.07,0,0,0,0,0
182.59,0.89445,2.0713,0,0,0,0,0
183.09,0.89763,2.0727,0,0,0,0,0
183.59,0.90081,2.074,0,0,0,0,0
184.09,0.90385,2.075,0,0,0,0,0
184.59,0.90705,2.076,0,0,0,0,0
185.09,0.91009,2.0773,0,0,0,0,0
185.59,0.91327,2.0787,0,0,0,0,0
186.09,0.91636,2.08,0,0,0,0,0
186.59,0.91958,2.081,0,0,0,0,0
187.09,0.9226,2.0823,0,0,0,0,0
187.59,0.92592,2.0837,0,0,0,0,0
188.09,0.92902,2.085,0,0,0,0,0
188.59,0.93218,2.0863,0,0,0,0,0
189.09,0.93523,2.0874,0,0,0,0,0
189.59,0.93843,2.0883,0,0,0,0,0
190.09,0.94154,2.0893,0,0,0,0,0
190.59,0.94465,2.0904,0,0,0,0,0
191.09,0.94782,2.0916,0,0,0,0,0
191.59,0.95084,2.093,0,0,0,0,0
192.09,0.95412,2.0944,0,0,0,0,0
192.59,0.95714,2.0956,0,0,0,0,0
193.09,0.96045,2.0967,0,0,0,0,0
193.59,0.96349,2.0983,0,0,0,0,0
194.09,0.96677,2.0997,0,0,0,0,0
194.59,0.96993,2.101,0,0,0,0,0
195.09,0.97317,2.102,0,0,0,0,0
195.59,0.97625,2.103,0,0,0,0,0
196.09,0.97951,2.104,0,0,0,0,0
196.59,0.98263,2.105,0,0,0,0,0
197.09,0.9858,2.106,0,0,0,0,0
197.59,0.98902,2.1073,0,0,0,0,0
198.09,0.99203,2.1084,0,0,0,0,0
198.59,0.99534,2.1096,0,0,0,0,0
199.09,0.99836,2.1107,0,0,0,0,0
199.59,1.0016,2.112,0,0,0,0,0
200.09,1.0047,2.113,0,0,0,0,0
200.59,1.008,2.1143,0,0,0,0,0
201.09,1.0111,2.1157,0,0,0,0,0
201.59,1.0143,2.117,0,0,0,0,0
202.09,1.0173,2.118,0,0,0,0,0
202.59,1.0206,2.119,0,0,0,0,0
203.09,1.0237,2.12,0,0,0,0,0
203.59,1.027,2.121,0,0,0,0,0
204.09,1.0301,2.122,0,0,0,0,0
204.59,1.0333,2.1233,0,0,0,0,0
205.09,1.0365,2.1247,0,0,0,0,0
205.59,1.0396,2.126,0,0,0,0,0
206.09,1.0428,2.127,0,0,0,0,0
206.59,1.0459,2.128,0,0,0,0,0
207.09,1.0492,2.129,0,0,0,0,0
207.59,1.0523,2.13,0,0,0,0,0
208.09,1.0556,2.131,0,0,0,0,0
208.59,1.0586,2.132,0,0,0,0,0
209.09,1.0619,2.133,0,0,0,0,0
209.59,1.065,2.134,0,0,0,0,0
210.09,1.0682,2.1353,0,0,0,0,0
210.59,1.0713,2.1364,0,0,0,0,0
211.09,1.0745,2.1373,0,0,0,0,0
211.59,1.0776,2.1383,0,0,0,0,0
212.09,1.0807,2.1397,0,0,0,0,0
212.59,1.084,2.141,0,0,0,0,0
213.09,1.0871,2.142,0,0,0,0,0
213.59,1.0904,2.143,0,0,0,0,0
214.09,1.0934,2.144,0,0,0,0,0
214.59,1.0967,2.145,0,0,0,0,0
215.09,1.0998,2.146,0,0,0,0,0
215.59,1.1031,2.147,0,0,0,0,0
216.09,1.1062,2.148,0,0,0,0,0
216.59,1.1094,2.149,0,0,0,0,0
217.09,1.1125,2.15,0,0,0,0,0
217.59,1.1156,2.151,0,0,0,0,0
218.09,1.1189,2.152,0,0,0,0,0
218.59,1.1222,2.1533,0,0,0,0,0
219.09,1.1253,2.1544,0,0,0,0,0
219.59,1.1284,2.1553,0,0,0,0,0
220.09,1.1317,2.156,0,0,0,0,0
220.59,1.1348,2.1573,0,0,0,0,0
221.09,1.1381,2.1587,0,0,0,0,0
221.59,1.1412,2.16,0,0,0,0,0
222.09,1.1446,2.161,0,0,0,0,0
222.59,1.1477,2.1617,0,0,0,0,0
223.09,1.1509,2.1626,0,0,0,0,0
223.59,1.1541,2.1637,0,0,0,0,0
224.09,1.1574,2.165,0,0,0,0,0
224.59,1.1605,2.166,0,0,0,0,0
225.09,1.1638,2.167,0,0,0,0,0
225.59,1.1669,2.168,0,0,0,0,0
226.09,1.1702,2.169,0,0,0,0,0
226.59,1.1734,2.17,0,0,0,0,0
227.09,1.1765,2.171,0,0,0,0,0
227.59,1.1798,2.172,0,0,0,0,0
228.09,1.1829,2.173,0,0,0,0,0
228.59,1.1862,2.174,0,0,0,0,0
229.09,1.1893,2.175,0,0,0,0,0
229.59,1.1927,2.176,0,0,0,0,0
230.09,1.1958,2.177,0,0,0,0,0
230.59,1.1991,2.178,0,0,0,0,0
231.09,1.2022,2.179,0,0,0,0,0
231.59,1.2056,2.18,0,0,0,0,0
232.09,1.2088,2.181,0,0,0,0,0
232.59,1.212,2.182,0,0,0,0,0
233.09,1.2151,2.1827,0,0,0,0,0
233.59,1.2184,2.1836,0,0,0,0,0
234.09,1.2215,2.1847,0,0,0,0,0
234.59,1.2247,2.186,0,0,0,0,0
235.09,1.228,2.187,0,0,0,0,0
235.59,1.2311,2.188,0,0,0,0,0
236.09,1.2343,2.189,0,0,0,0,0
236.59,1.2374,2.19,0,0,0,0,0
237.09,1.2407,2.191,0,0,0,0,0
237.59,1.2438,2.192,0,0,0,0,0
238.09,1.2471,2.1927,0,0,0,0,0
238.59,1.2502,2.1933,0,0,0,0,0
239.09,1.2536,2.194,0,0,0,0,0
239.59,1.2566,2.1953,0,0,0,0,0
240.09,1.26,2.1964,0,0,0,0,0
240.59,1.2631,2.1973,0,0,0,0,0
241.09,1.2664,2.1983,0,0,0,0,0
241.59,1.2695,2.1994,0,0,0,0,0
242.09,1.2729,2.2003,0,0,0,0,0
242.59,1.276,2.201,0,0,0,0,0
243.08,1.2792,2.202,0,0,0,0,0
243.59,1.2824,2.203,0,0,0,0,0
244.09,1.2855,2.204,0,0,0,0,0
244.59,1.2888,2.205,0,0,0,0,0
245.09,1.2919,2.206,0,0,0,0,0
245.59,1.2952,2.2067,0,0,0,0,0
246.09,1.2983,2.2076,0,0,0,0,0
246.59,1.3016,2.2084,0,0,0,0,0
247.09,1.3046,2.2093,0,0,0,0,0
247.59,1.308,2.21,0,0,0,0,0
248.09,1.3111,2.211,0,0,0,0,0
248.59,1.3143,2.212,0,0,0,0,0
249.09,1.3174,2.213,0,0,0,0,0
249.59,1.3206,2.214,0,0,0,0,0
250.09,1.3238,2.215,0,0,0,0,0
250.59,1.3271,2.216,0,0,0,0,0
251.09,1.3301,2.217,0,0,0,0,0
251.59,1.3333,2.2177,0,0,0,0,0
252.09,1.3366,2.2186,0,0,0,0,0
252.59,1.3397,2.2194,0,0,0,0,0
253.09,1.343,2.2206,0,0,0,0,0
253.59,1.3461,2.2214,0,0,0,0,0
254.09,1.3494,2.2223,0,0,0,0,0
254.59,1.3524,2.223,0,0,0,0,0
255.09,1.3558,2.224,0,0,0,0,0
255.59,1.3589,2.225,0,0,0,0,0
256.08,1.3622,2.226,0,0,0,0,0
256.58,1.3652,2.227,0,0,0,0,0
257.08,1.3685,2.2277,0,0,0,0,0
257.58,1.3716,2.2286,0,0,0,0,0
258.08,1.3748,2.2294,0,0,0,0,0
258.58,1.378,2.2303,0,0,0,0,0
259.08,1.3812,2.231,0,0,0,0,0
259.58,1.3844,2.232,0,0,0,0,0
260.08,1.3875,2.233,0,0,0,0,0
260.58,1.3907,2.234,0,0,0,0,0
261.08,1.3939,2.235,0,0,0,0,0
261.58,1.3972,2.236,0,0,0,0,0
262.08,1.4002,2.237,0,0,0,0,0
262.58,1.4035,2.2377,0,0,0,0,0
263.08,1.4066,2.2383,0,0,0,0,0
263.58,1.4099,2.239,0,0,0,0,0
264.08,1.413,2.24,0,0,0,0,0
264.58,1.4163,2.241,0,0,0,0,0
265.08,1.4195,2.242,0,0,0,0,0
265.58,1.4228,2.243,0,0,0,0,0
266.08,1.426,2.244,0,0,0,0,0
266.58,1.4293,2.245,0,0,0,0,0
267.08,1.4325,2.2457,0,0,0,0,0
267.58,1.4357,2.2463,0,0,0,0,0
268.08,1.439,2.247,0,0,0,0,0
268.58,1.4421,2.248,0,0,0,0,0
269.08,1.4454,2.249,0,0,0,0,0
269.58,1.4485,2.25,0,0,0,0,0
270.08,1.4519,2.251,0,0,0,0,0
270.58,1.4549,2.252,0,0,0,0,0
271.08,1.4583,2.2527,0,0,0,0,0
271.58,1.4614,2.2533,0,0,0,0,0
272.08,1.4648,2.254,0,0,0,0,0
272.58,1.4679,2.255,0,0,0,0,0
273.08,1.4712,2.256,0,0,0,0,0
273.58,1.4744,2.257,0,0,0,0,0
274.08,1.4777,2.258,0,0,0,0,0
274.58,1.4809,2.259,0,0,0,0,0
275.08,1.4842,2.2597,0,0,0,0,0
275.58,1.4874,2.2603,0,0,0,0,0
276.08,1.4906,2.2607,0,0,0,0,0
276.58,1.4939,2.2616,0,0,0,0,0
277.08,1.497,2.2627,0,0,0,0,0
277.58,1.5003,2.264,0,0,0,0,0
278.08,1.5034,2.2647,0,0,0,0,0
278.58,1.5068,2.2653,0,0,0,0,0
279.08,1.5099,2.266,0,0,0,0,0
279.58,1.5132,2.267,0,0,0,0,0
280.08,1.5162,2.268,0,0,0,0,0
280.58,1.5196,2.2687,0,0,0,0,0
281.08,1.5227,2.2693,0,0,0,0,0
281.58,1.5261,2.27,0,0,0,0,0
282.08,1.5291,2.271,0,0,0,0,0
282.58,1.5324,2.272,0,0,0,0,0
283.08,1.5356,2.273,0,0,0,0,0
283.58,1.5388,2.274,0,0,0,0,0
284.08,1.542,2.2747,0,0,0,0,0
284.58,1.5452,2.2753,0,0,0,0,0
285.08,1.5485,2.276,0,0,0,0,0
285.58,1.5516,2.277,0,0,0,0,0
286.08,1.555,2.278,0,0,0,0,0
286.58,1.5581,2.279,0,0,0,0,0
287.08,1.5614,2.2797,0,0,0,0,0
287.58,1.5645,2.2803,0,0,0,0,0
288.08,1.5679,2.281,0,0,0,0,0
288.58,1.5709,2.282,0,0,0,0,0
289.08,1.5743,2.283,0,0,0,0,0
289.58,1.5774,2.284,0,0,0,0,0
290.08,1.5807,2.2847,0,0,0,0,0
290.58,1.5838,2.2853,0,0,0,0,0
291.08,1.5871,2.286,0,0,0,0,0
291.58,1.5903,2.287,0,0,0,0,0
292.08,1.5934,2.2877,0,0,0,0,0
292.58,1.5967,2.2883,0,0,0,0,0
293.08,1.5999,2.289,0,0,0,0,0
293.58,1.6031,2.29,0,0,0,0,0
294.08,1.6063,2.2907,0,0,0,0,0
294.58,1.6096,2.2913,0,0,0,0,0
295.08,1.6126,2.292,0,0,0,0,0
295.58,1.6159,2.293,0,0,0,0,0
296.08,1.619,2.294,0,0,0,0,0
296.58,1.6224,2.295,0,0,0,0,0
297.08,1.6255,2.2957,0,0,0,0,0
297.58,1.6288,2.2963,0,0,0,0,0
298.08,1.632,2.2973,0,0,0,0,0
298.58,1.6352,2.2984,0,0,0,0,0
299.08,1.6384,2.2993,0,0,0,0,0
299.58,1.6417,2.2997,0,0,0,0,0
300.08,1.6449,2.3003,0,0,0,0,0
300.58,1.648,2.3013,0,0,0,0,0
301.08,1.6514,2.3024,0,0,0,0,0
301.58,1.6546,2.3033,0,0,0,0,0
302.08,1.6578,2.3037,0,0,0,0,0
302.58,1.6609,2.3043,0,0,0,0,0
303.08,1.6643,2.305,0,0,0,0,0
303.58,1.6673,2.306,0,0,0,0,0
304.08,1.6707,2.307,0,0,0,0,0
304.58,1.6738,2.308,0,0,0,0,0
305.08,1.6771,2.3087,0,0,0,0,0
305.58,1.6802,2.3093,0,0,0,0,0
306.08,1.6836,2.31,0,0,0,0,0
306.58,1.6868,2.311,0,0,0,0,0
307.08,1.6901,2.312,0,0,0,0,0
307.58,1.6933,2.3127,0,0,0,0,0
308.08,1.6966,2.3133,0,0,0,0,0
308.58,1.6997,2.314,0,0,0,0,0
309.08,1.703,2.315,0,0,0,0,0
309.58,1.7062,2.316,0,0,0,0,0
310.08,1.7095,2.317,0,0,0,0,0
310.58,1.7128,2.3177,0,0,0,0,0
311.08,1.7159,2.3183,0,0,0,0,0
311.58,1.7192,2.3187,0,0,0,0,0
312.08,1.7224,2.3193,0,0,0,0,0
312.58,1.7257,2.32,0,0,0,0,0
313.08,1.7288,2.321,0,0,0,0,0
313.58,1.7322,2.322,0,0,0,0,0
314.08,1.7353,2.323,0,0,0,0,0
314.58,1.7387,2.3237,0,0,0,0,0
315.08,1.7418,2.3243,0,0,0,0,0
315.58,1.7451,2.325,0,0,0,0,0
316.08,1.7483,2.3257,0,0,0,0,0
316.58,1.7516,2.3263,0,0,0,0,0
317.08,1.7548,2.327,0,0,0,0,0
317.58,1.758,2.328,0,0,0,0,0
318.08,1.7612,2.3287,0,0,0,0,0
318.58,1.7643,2.3293,0,0,0,0,0
319.08,1.7676,2.33,0,0,0,0,0
319.58,1.7707,2.331,0,0,0,0,0
320.08,1.7741,2.332,0,0,0,0,0
320.58,1.7772,2.333,0,0,0,0,0
321.08,1.7804,2.3337,0,0,0,0,0
