Time[s],Displacement longi[mm],Force[kN],N/A,N/A,N/A,Thickness[mm],OuterWidth[mm],N/A
0,0,-0.012256,0,0,1.5131,20.023,0
0.5,0.000466,-0.0017885,0,0,0,0,0
1,0.001684,0.010074,0,0,0,0,0
1.5,0.003006,0.033675,0,0,0,0,0
2,0.004517,0.059197,0,0,0,0,0
2.5,0.00574,0.083213,0,0,0,0,0
3,0.006546,0.10348,0,0,0,0,0
3.5,0.007474,0.1232,0,0,0,0,0
4,0.008504,0.14361,0,0,0,0,0
4.5,0.009246,0.16356,0,0,0,0,0
5,0.009967,0.1812,0,0,0,0,0
5.5,0.01094,0.19747,0,0,0,0,0
6,0.011498,0.21422,0,0,0,0,0
6.5,0.01252,0.23063,0,0,0,0,0
7,0.013251,0.24783,0,0,0,0,0
7.5,0.014204,0.26493,0,0,0,0,0
8,0.015049,0.28259,0,0,0,0,0
8.5,0.016232,0.29865,0,0,0,0,0
9,0.017392,0.3138,0,0,0,0,0
9.5,0.018385,0.32907,0,0,0,0,0
10,0.018869,0.34604,0,0,0,0,0
10.5,0.020506,0.36337,0,0,0,0,0
11,0.021632,0.37954,0,0,0,0,0
11.5,0.022857,0.39516,0,0,0,0,0
12,0.023831,0.41064,0,0,0,0,0
12.5,0.025155,0.42626,0,0,0,0,0
13,0.025717,0.44197,0,0,0,0,0
13.5,0.026503,0.45839,0,0,0,0,0
14,0.02751,0.47433,0,0,0,0,0
14.5,0.028148,0.4888,0,0,0,0,0
15,0.029101,0.50452,0,0,0,0,0
15.5,0.029839,0.52069,0,0,0,0,0
16,0.030694,0.53722,0,0,0,0,0
16.5,0.031783,0.55191,0,0,0,0,0
17,0.032414,0.56695,0,0,0,0,0
17.5,0.03336,0.58107,0,0,0,0,0
18,0.034304,0.59587,0,0,0,0,0
18.5,0.035224,0.61069,0,0,0,0,0
19,0.036316,0.62617,0,0,0,0,0
19.5,0.037777,0.64213,0,0,0,0,0
20,0.038668,0.65761,0,0,0,0,0
20.5,0.039903,0.67289,0,0,0,0,0
21,0.041079,0.68768,0,0,0,0,0
21.5,0.041959,0.70284,0,0,0,0,0
22,0.042958,0.71801,0,0,0,0,0
22.5,0.04384,0.73238,0,0,0,0,0
23,0.044965,0.74617,0,0,0,0,0
23.5,0.045703,0.76051,0,0,0,0,0
24,0.046725,0.77487,0,0,0,0,0
24.5,0.047698,0.78922,0,0,0,0,0
25,0.048416,0.80391,0,0,0,0,0
25.5,0.049314,0.81837,0,0,0,0,0
26,0.050099,0.83284,0,0,0,0,0
26.5,0.0514,0.84776,0,0,0,0,0
27,0.052452,0.86177,0,0,0,0,0
27.5,0.053535,0.87512,0,0,0,0,0
28,0.054691,0.8896,0,0,0,0,0
28.5,0.055997,0.9051,0,0,0,0,0
29,0.0573,0.91749,0,0,0,0,0
29.5,0.058665,0.93004,0,0,0,0,0
30,0.059995,0.94356,0,0,0,0,0
30.5,0.061134,0.95804,0,0,0,0,0
31,0.062171,0.97205,0,0,0,0,0
31.5,0.063318,0.98582,0,0,0,0,0
32,0.064449,0.99803,0,0,0,0,0
32.5,0.065413,1.0093,0,0,0,0,0
33,0.066498,1.0226,0,0,0,0,0
33.5,0.067445,1.0339,0,0,0,0,0
34,0.068322,1.0463,0,0,0,0,0
34.5,0.069426,1.0592,0,0,0,0,0
35,0.070264,1.0717,0,0,0,0,0
35.5,0.071319,1.083,0,0,0,0,0
36,0.072578,1.0961,0,0,0,0,0
36.5,0.073674,1.1092,0,0,0,0,0
37,0.074704,1.1202,0,0,0,0,0
37.5,0.076169,1.1313,0,0,0,0,0
38,0.077394,1.1424,0,0,0,0,0
38.5,0.078658,1.1541,0,0,0,0,0
39,0.079725,1.1646,0,0,0,0,0
39.5,0.080933,1.1758,0,0,0,0,0
40,0.082083,1.1875,0,0,0,0,0
40.5,0.082872,1.2004,0,0,0,0,0
41,0.08395,1.2119,0,0,0,0,0
41.5,0.085114,1.2222,0,0,0,0,0
42,0.086104,1.2322,0,0,0,0,0
42.5,0.087134,1.2431,0,0,0,0,0
43,0.087947,1.2572,0,0,0,0,0
43.5,0.089286,1.2686,0,0,0,0,0
44,0.09061,1.2777,0,0,0,0,0
44.5,0.091825,1.2858,0,0,0,0,0
45,0.093046,1.296,0,0,0,0,0
45.5,0.094552,1.3044,0,0,0,0,0
46,0.096125,1.3151,0,0,0,0,0
46.5,0.097602,1.3279,0,0,0,0,0
47,0.099341,1.3392,0,0,0,0,0
47.5,0.10051,1.3486,0,0,0,0,0
48,0.10185,1.3572,0,0,0,0,0
48.5,0.10298,1.3668,0,0,0,0,0
49,0.10448,1.3768,0,0,0,0,0
49.5,0.10574,1.3877,0,0,0,0,0
50,0.10691,1.3987,0,0,0,0,0
50.5,0.10786,1.4084,0,0,0,0,0
51,0.10921,1.4166,0,0,0,0,0
51.5,0.11062,1.4239,0,0,0,0,0
52,0.1117,1.4327,0,0,0,0,0
52.5,0.11318,1.4425,0,0,0,0,0
53,0.11456,1.4532,0,0,0,0,0
53.5,0.11629,1.4632,0,0,0,0,0
54,0.11744,1.4733,0,0,0,0,0
54.5,0.11941,1.4832,0,0,0,0,0
55,0.12098,1.492,0,0,0,0,0
55.5,0.12246,1.4991,0,0,0,0,0
56,0.12367,1.5064,0,0,0,0,0
56.5,0.12504,1.5147,0,0,0,0,0
57,0.12614,1.5257,0,0,0,0,0
57.5,0.12761,1.5357,0,0,0,0,0
58,0.12868,1.543,0,0,0,0,0
58.5,0.13002,1.548,0,0,0,0,0
59,0.13136,1.556,0,0,0,0,0
59.5,0.13285,1.5651,0,0,0,0,0
60,0.13457,1.5744,0,0,0,0,0
60.5,0.13599,1.5835,0,0,0,0,0
61,0.13769,1.5925,0,0,0,0,0
61.5,0.13982,1.6013,0,0,0,0,0
62,0.14166,1.6092,0,0,0,0,0
62.5,0.14348,1.6176,0,0,0,0,0
63,0.14503,1.6249,0,0,0,0,0
63.5,0.14642,1.6319,0,0,0,0,0
64,0.14833,1.6395,0,0,0,0,0
64.5,0.14974,1.6483,0,0,0,0,0
65,0.1511,1.6566,0,0,0,0,0
65.5,0.15263,1.6642,0,0,0,0,0
66,0.15399,1.6708,0,0,0,0,0
66.5,0.15602,1.6783,0,0,0,0,0
67,0.15734,1.6853,0,0,0,0,0
67.5,0.15948,1.6931,0,0,0,0,0
68,0.16102,1.7004,0,0,0,0,0
68.5,0.16283,1.7073,0,0,0,0,0
69,0.16489,1.713,0,0,0,0,0
69.5,0.16689,1.7206,0,0,0,0,0
70,0.16903,1.728,0,0,0,0,0
70.5,0.17067,1.7337,0,0,0,0,0
71,0.17253,1.7398,0,0,0,0,0
71.5,0.17392,1.7467,0,0,0,0,0
72,0.1758,1.753,0,0,0,0,0
72.5,0.17743,1.7601,0,0,0,0,0
73,0.17904,1.7677,0,0,0,0,0
73.5,0.18051,1.7734,0,0,0,0,0
74,0.18271,1.7791,0,0,0,0,0
74.5,0.18448,1.7866,0,0,0,0,0
75,0.18619,1.7945,0,0,0,0,0
75.5,0.18803,1.8014,0,0,0,0,0
76,0.19067,1.808,0,0,0,0,0
76.5,0.19276,1.8142,0,0,0,0,0
77,0.19468,1.8193,0,0,0,0,0
77.5,0.19647,1.8239,0,0,0,0,0
78,0.19863,1.8297,0,0,0,0,0
78.5,0.20008,1.8362,0,0,0,0,0
79,0.20198,1.8436,0,0,0,0,0
79.5,0.20373,1.85,0,0,0,0,0
80,0.20516,1.8564,0,0,0,0,0
80.5,0.20726,1.8628,0,0,0,0,0
81,0.20933,1.8694,0,0,0,0,0
81.5,0.21107,1.8745,0,0,0,0,0
82,0.2132,1.8805,0,0,0,0,0
82.5,0.2152,1.8872,0,0,0,0,0
83,0.21774,1.8924,0,0,0,0,0
83.5,0.21994,1.8978,0,0,0,0,0
84,0.22211,1.9034,0,0,0,0,0
84.5,0.22448,1.909,0,0,0,0,0
85,0.22631,1.9147,0,0,0,0,0
85.5,0.22806,1.921,0,0,0,0,0
86,0.23014,1.9248,0,0,0,0,0
86.5,0.23202,1.9294,0,0,0,0,0
87,0.23417,1.9354,0,0,0,0,0
87.5,0.23623,1.9421,0,0,0,0,0
88,0.23816,1.9479,0,0,0,0,0
88.5,0.2406,1.9529,0,0,0,0,0
89,0.2428,1.9565,0,0,0,0,0
89.5,0.24511,1.9613,0,0,0,0,0
90,0.24762,1.9672,0,0,0,0,0
90.5,0.24984,1.9734,0,0,0,0,0
91,0.25235,1.978,0,0,0,0,0
91.5,0.25452,1.9819,0,0,0,0,0
92,0.25662,1.985,0,0,0,0,0
92.5,0.25855,1.9924,0,0,0,0,0
93,0.26067,1.9995,0,0,0,0,0
93.5,0.26254,2.0049,0,0,0,0,0
94,0.26466,2.0066,0,0,0,0,0
94.5,0.26696,2.0103,0,0,0,0,0
95,0.26915,2.0147,0,0,0,0,0
95.5,0.27146,2.0195,0,0,0,0,0
96,0.27388,2.0242,0,0,0,0,0
96.5,0.27692,2.0294,0,0,0,0,0
97,0.27892,2.0347,0,0,0,0,0
97.5,0.28161,2.0398,0,0,0,0,0
98,0.28365,2.0441,0,0,0,0,0
98.5,0.28574,2.0483,0,0,0,0,0
99,0.288,2.0528,0,0,0,0,0
99.5,0.29011,2.057,0,0,0,0,0
100,0.29226,2.0609,0,0,0,0,0
100.5,0.29434,2.0657,0,0,0,0,0
101,0.29633,2.0703,0,0,0,0,0
101.5,0.29875,2.0739,0,0,0,0,0
102,0.30109,2.0786,0,0,0,0,0
102.5,0.3037,2.0846,0,0,0,0,0
103,0.30638,2.089,0,0,0,0,0
103.5,0.30916,2.0925,0,0,0,0,0
104,0.31132,2.096,0,0,0,0,0
104.5,0.3136,2.1008,0,0,0,0,0
105,0.31635,2.1049,0,0,0,0,0
105.5,0.31833,2.1086,0,0,0,0,0
106,0.32023,2.1124,0,0,0,0,0
106.5,0.32254,2.1198,0,0,0,0,0
107,0.32466,2.1251,0,0,0,0,0
107.5,0.32684,2.1272,0,0,0,0,0
108,0.32934,2.1281,0,0,0,0,0
108.5,0.33176,2.1329,0,0,0,0,0
109,0.33466,2.1374,0,0,0,0,0
109.5,0.33735,2.1408,0,0,0,0,0
110,0.33992,2.1428,0,0,0,0,0
110.5,0.34242,2.1464,0,0,0,0,0
111,0.34494,2.1519,0,0,0,0,0
111.5,0.34713,2.157,0,0,0,0,0
112,0.34961,2.159,0,0,0,0,0
112.5,0.35144,2.1619,0,0,0,0,0
113,0.35384,2.1658,0,0,0,0,0
113.5,0.356,2.171,0,0,0,0,0
114,0.35883,2.1743,0,0,0,0,0
114.5,0.36108,2.1768,0,0,0,0,0
115,0.36372,2.1788,0,0,0,0,0
115.5,0.36634,2.182,0,0,0,0,0
116,0.36944,2.1858,0,0,0,0,0
116.5,0.37181,2.1895,0,0,0,0,0
117,0.37437,2.1931,0,0,0,0,0
117.5,0.37683,2.1962,0,0,0,0,0
118,0.37942,2.1989,0,0,0,0,0
118.5,0.38183,2.2015,0,0,0,0,0
119,0.38403,2.2043,0,0,0,0,0
119.5,0.38647,2.2089,0,0,0,0,0
120,0.38866,2.2135,0,0,0,0,0
120.5,0.39117,2.2181,0,0,0,0,0
121,0.39379,2.2208,0,0,0,0,0
121.5,0.39654,2.2241,0,0,0,0,0
122,0.39886,2.2274,0,0,0,0,0
122.5,0.40204,2.2312,0,0,0,0,0
123,0.40495,2.2345,0,0,0,0,0
123.5,0.40744,2.2377,0,0,0,0,0
124,0.41012,2.2403,0,0,0,0,0
124.5,0.41272,2.2425,0,0,0,0,0
125,0.41505,2.2454,0,0,0,0,0
125.5,0.41744,2.2485,0,0,0,0,0
126,0.41989,2.2511,0,0,0,0,0
126.5,0.42219,2.2537,0,0,0,0,0
127,0.42475,2.2564,0,0,0,0,0
127.5,0.42736,2.2594,0,0,0,0,0
128,0.43007,2.2645,0,0,0,0,0
128.5,0.43316,2.2698,0,0,0,0,0
129,0.43588,2.2732,0,0,0,0,0
129.5,0.43857,2.2753,0,0,0,0,0
130,0.44124,2.2776,0,0,0,0,0
130.5,0.44386,2.2797,0,0,0,0,0
131,0.44628,2.2826,0,0,0,0,0
131.5,0.44894,2.2862,0,0,0,0,0
132,0.4513,2.2895,0,0,0,0,0
132.5,0.45371,2.2918,0,0,0,0,0
133,0.45621,2.2944,0,0,0,0,0
133.5,0.45862,2.2995,0,0,0,0,0
134,0.46157,2.3043,0,0,0,0,0
134.5,0.46451,2.3063,0,0,0,0,0
135,0.46761,2.3066,0,0,0,0,0
135.5,0.47043,2.3078,0,0,0,0,0
136,0.47291,2.3096,0,0,0,0,0
136.5,0.47563,2.3121,0,0,0,0,0
137,0.47841,2.3155,0,0,0,0,0
137.5,0.48076,2.3189,0,0,0,0,0
138,0.48326,2.3223,0,0,0,0,0
138.5,0.4858,2.3247,0,0,0,0,0
139,0.48822,2.3278,0,0,0,0,0
139.5,0.49096,2.3309,0,0,0,0,0
140,0.49374,2.3343,0,0,0,0,0
140.5,0.49664,2.336,0,0,0,0,0
141,0.49967,2.3387,0,0,0,0,0
141.5,0.50281,2.3421,0,0,0,0,0
142,0.50541,2.3469,0,0,0,0,0
142.5,0.50812,2.3496,0,0,0,0,0
143,0.51068,2.3512,0,0,0,0,0
143.5,0.5134,2.3514,0,0,0,0,0
144,0.51578,2.3533,0,0,0,0,0
144.5,0.51846,2.3565,0,0,0,0,0
145,0.52116,2.36,0,0,0,0,0
145.5,0.52359,2.3628,0,0,0,0,0
146,0.52635,2.3657,0,0,0,0,0
146.5,0.52936,2.369,0,0,0,0,0
147,0.5322,2.371,0,0,0,0,0
147.5,0.53541,2.3727,0,0,0,0,0
148,0.53831,2.3754,0,0,0,0,0
148.5,0.54135,2.3788,0,0,0,0,0
149,0.5439,2.3809,0,0,0,0,0
149.5,0.54651,2.3827,0,0,0,0,0
150,0.54917,2.3844,0,0,0,0,0
150.5,0.55135,2.3867,0,0,0,0,0
151,0.55437,2.3883,0,0,0,0,0
151.5,0.55684,2.3909,0,0,0,0,0
152,0.56009,2.3947,0,0,0,0,0
152.5,0.56242,2.3979,0,0,0,0,0
153,0.56562,2.3989,0,0,0,0,0
153.5,0.56871,2.3998,0,0,0,0,0
154,0.57155,2.403,0,0,0,0,0
154.5,0.57451,2.4067,0,0,0,0,0
155,0.57702,2.41,0,0,0,0,0
155.5,0.57962,2.4116,0,0,0,0,0
156,0.5823,2.4134,0,0,0,0,0
156.5,0.58503,2.4155,0,0,0,0,0
157,0.58758,2.4174,0,0,0,0,0
157.5,0.59028,2.4183,0,0,0,0,0
158,0.5931,2.4203,0,0,0,0,0
158.5,0.59585,2.4234,0,0,0,0,0
159,0.59869,2.4272,0,0,0,0,0
159.5,0.60208,2.4299,0,0,0,0,0
160,0.60492,2.4311,0,0,0,0,0
160.5,0.60779,2.4314,0,0,0,0,0
161,0.61075,2.432,0,0,0,0,0
161.5,0.61335,2.4345,0,0,0,0,0
162,0.61591,2.4371,0,0,0,0,0
162.5,0.61851,2.4406,0,0,0,0,0
163,0.62104,2.4423,0,0,0,0,0
163.5,0.62344,2.4447,0,0,0,0,0
164,0.62665,2.4461,0,0,0,0,0
164.5,0.62947,2.4484,0,0,0,0,0
165,0.63235,2.4497,0,0,0,0,0
165.5,0.63545,2.4524,0,0,0,0,0
166,0.63872,2.455,0,0,0,0,0
166.5,0.64179,2.457,0,0,0,0,0
167,0.64421,2.4579,0,0,0,0,0
167.5,0.64734,2.4594,0,0,0,0,0
168,0.65002,2.4626,0,0,0,0,0
168.5,0.65267,2.4658,0,0,0,0,0
169,0.65547,2.4692,0,0,0,0,0
169.5,0.65804,2.4704,0,0,0,0,0
170,0.66056,2.4712,0,0,0,0,0
170.5,0.66366,2.473,0,0,0,0,0
171,0.66636,2.4761,0,0,0,0,0
171.5,0.66961,2.4776,0,0,0,0,0
172,0.67276,2.4774,0,0,0,0,0
172.5,0.67563,2.4782,0,0,0,0,0
173,0.67854,2.4803,0,0,0,0,0
173.5,0.68155,2.4828,0,0,0,0,0
174,0.6841,2.4845,0,0,0,0,0
174.5,0.68676,2.487,0,0,0,0,0
175,0.68947,2.4899,0,0,0,0,0
175.5,0.69204,2.4915,0,0,0,0,0
176,0.695,2.4929,0,0,0,0,0
176.5,0.69794,2.4947,0,0,0,0,0
177,0.70085,2.4971,0,0,0,0,0
177.5,0.70406,2.4994,0,0,0,0,0
178,0.70747,2.5009,0,0,0,0,0
178.5,0.71023,2.5016,0,0,0,0,0
179,0.71339,2.5037,0,0,0,0,0
179.5,0.71613,2.5063,0,0,0,0,0
180,0.71901,2.5063,0,0,0,0,0
180.5,0.72135,2.5061,0,0,0,0,0
181,0.72411,2.5076,0,0,0,0,0
181.5,0.7272,2.5114,0,0,0,0,0
182,0.73005,2.5146,0,0,0,0,0
182.5,0.73253,2.5172,0,0,0,0,0
183,0.73591,2.5191,0,0,0,0,0
183.5,0.73884,2.5209,0,0,0,0,0
184,0.74207,2.522,0,0,0,0,0
184.5,0.74497,2.5231,0,0,0,0,0
185,0.74818,2.5243,0,0,0,0,0
185.5,0.75102,2.5259,0,0,0,0,0
186,0.75364,2.5275,0,0,0,0,0
186.5,0.75643,2.5297,0,0,0,0,0
187,0.75897,2.5308,0,0,0,0,0
187.5,0.7617,2.5319,0,0,0,0,0
188,0.76459,2.534,0,0,0,0,0
188.5,0.76767,2.5366,0,0,0,0,0
189,0.77049,2.5391,0,0,0,0,0
189.5,0.77397,2.5409,0,0,0,0,0
190,0.77721,2.5428,0,0,0,0,0
190.5,0.78053,2.5444,0,0,0,0,0
191,0.78342,2.5463,0,0,0,0,0
191.5,0.78647,2.5466,0,0,0,0,0
192,0.78922,2.5468,0,0,0,0,0
192.5,0.79177,2.5486,0,0,0,0,0
193,0.79463,2.5523,0,0,0,0,0
193.5,0.79747,2.5551,0,0,0,0,0
194,0.80044,2.5558,0,0,0,0,0
194.5,0.80298,2.5555,0,0,0,0,0
195,0.80615,2.5572,0,0,0,0,0
195.5,0.80945,2.5591,0,0,0,0,0
196,0.81278,2.56,0,0,0,0,0
196.5,0.81587,2.561,0,0,0,0,0
197,0.81894,2.5641,0,0,0,0,0
197.5,0.82161,2.5664,0,0,0,0,0
198,0.82453,2.5673,0,0,0,0,0
198.5,0.82718,2.568,0,0,0,0,0
199,0.82991,2.5721,0,0,0,0,0
199.5,0.8328,2.5756,0,0,0,0,0
200,0.83579,2.5775,0,0,0,0,0
200.5,0.8387,2.5773,0,0,0,0,0
201,0.84175,2.5778,0,0,0,0,0
201.5,0.84489,2.5783,0,0,0,0,0
202,0.84849,2.5798,0,0,0,0,0
202.5,0.85166,2.5811,0,0,0,0,0
203,0.85463,2.5821,0,0,0,0,0
203.5,0.85723,2.5834,0,0,0,0,0
204,0.8602,2.5849,0,0,0,0,0
204.5,0.86274,2.5856,0,0,0,0,0
205,0.86569,2.5872,0,0,0,0,0
205.5,0.86855,2.5901,0,0,0,0,0
206,0.87129,2.5944,0,0,0,0,0
206.5,0.87426,2.5961,0,0,0,0,0
207,0.87754,2.5965,0,0,0,0,0
207.5,0.88073,2.5957,0,0,0,0,0
208,0.88384,2.597,0,0,0,0,0
208.5,0.88708,2.598,0,0,0,0,0
209,0.89016,2.6002,0,0,0,0,0
209.5,0.89303,2.602,0,0,0,0,0
210,0.89576,2.6031,0,0,0,0,0
210.5,0.89878,2.6036,0,0,0,0,0
211,0.90144,2.6058,0,0,0,0,0
211.5,0.90405,2.6082,0,0,0,0,0
212,0.90729,2.6101,0,0,0,0,0
212.5,0.91004,2.6103,0,0,0,0,0
213,0.91338,2.6141,0,0,0,0,0
213.5,0.91652,2.6167,0,0,0,0,0
214,0.91994,2.6164,0,0,0,0,0
214.5,0.92331,2.6141,0,0,0,0,0
215,0.926,2.6157,0,0,0,0,0
215.5,0.9293,2.6174,0,0,0,0,0
216,0.93205,2.6193,0,0,0,0,0
216.5,0.93482,2.6217,0,0,0,0,0
217,0.93738,2.6234,0,0,0,0,0
217.5,0.9403,2.6238,0,0,0,0,0
218,0.94325,2.6247,0,0,0,0,0
218.5,0.94628,2.6258,0,0,0,0,0
219,0.94959,2.627,0,0,0,0,0
219.5,0.95299,2.6277,0,0,0,0,0
220,0.95618,2.6294,0,0,0,0,0
220.5,0.95924,2.6315,0,0,0,0,0
221,0.96222,2.6334,0,0,0,0,0
221.5,0.96513,2.6337,0,0,0,0,0
222,0.96811,2.6345,0,0,0,0,0
222.5,0.97104,2.6366,0,0,0,0,0
223,0.97364,2.6384,0,0,0,0,0
223.5,0.97654,2.6391,0,0,0,0,0
224,0.97955,2.6405,0,0,0,0,0
224.5,0.98278,2.642,0,0,0,0,0
225,0.98599,2.6428,0,0,0,0,0
225.5,0.98951,2.6431,0,0,0,0,0
226,0.9925,2.6454,0,0,0,0,0
226.5,0.99596,2.6469,0,0,0,0,0
227,0.9989,2.6476,0,0,0,0,0
227.5,1.0018,2.6483,0,0,0,0,0
228,1.0045,2.6499,0,0,0,0,0
228.5,1.0074,2.6511,0,0,0,0,0
229,1.0103,2.6521,0,0,0,0,0
229.5,1.0129,2.6534,0,0,0,0,0
230,1.016,2.6544,0,0,0,0,0
230.5,1.0192,2.6553,0,0,0,0,0
231,1.0223,2.6571,0,0,0,0,0
231.5,1.0258,2.6594,0,0,0,0,0
232,1.0291,2.6615,0,0,0,0,0
232.5,1.0321,2.6629,0,0,0,0,0
233,1.0352,2.6638,0,0,0,0,0
233.5,1.0379,2.6648,0,0,0,0,0
234,1.0407,2.666,0,0,0,0,0
234.5,1.0438,2.6671,0,0,0,0,0
235,1.0462,2.6675,0,0,0,0,0
235.5,1.0496,2.6691,0,0,0,0,0
236,1.0526,2.6714,0,0,0,0,0
236.5,1.0557,2.6726,0,0,0,0,0
237,1.0589,2.6728,0,0,0,0,0
237.5,1.0622,2.675,0,0,0,0,0
238,1.0655,2.6776,0,0,0,0,0
238.5,1.0685,2.6786,0,0,0,0,0
239,1.0712,2.679,0,0,0,0,0
239.5,1.0745,2.6799,0,0,0,0,0
240,1.0771,2.6815,0,0,0,0,0
240.5,1.08,2.6831,0,0,0,0,0
241,1.0825,2.6838,0,0,0,0,0
241.5,1.0858,2.6848,0,0,0,0,0
242,1.0886,2.6863,0,0,0,0,0
242.5,1.0918,2.6879,0,0,0,0,0
243,1.0952,2.6879,0,0,0,0,0
243.5,1.0986,2.6893,0,0,0,0,0
244,1.1019,2.6907,0,0,0,0,0
244.5,1.1049,2.6922,0,0,0,0,0
245,1.1077,2.6926,0,0,0,0,0
245.5,1.1103,2.6941,0,0,0,0,0
246,1.1133,2.6965,0,0,0,0,0
246.5,1.1164,2.6988,0,0,0,0,0
247,1.1188,2.7002,0,0,0,0,0
247.5,1.1221,2.7005,0,0,0,0,0
248,1.1251,2.7012,0,0,0,0,0
248.5,1.1284,2.7018,0,0,0,0,0
249,1.1316,2.7037,0,0,0,0,0
249.5,1.1348,2.706,0,0,0,0,0
250,1.138,2.7084,0,0,0,0,0
250.5,1.1412,2.7092,0,0,0,0,0
251,1.144,2.7098,0,0,0,0,0
251.5,1.1471,2.7105,0,0,0,0,0
252,1.1494,2.7118,0,0,0,0,0
252.5,1.1524,2.7122,0,0,0,0,0
253,1.1556,2.7123,0,0,0,0,0
253.5,1.1583,2.7138,0,0,0,0,0
254,1.1612,2.7156,0,0,0,0,0
254.5,1.1647,2.7164,0,0,0,0,0
255,1.1678,2.7175,0,0,0,0,0
255.5,1.1715,2.7191,0,0,0,0,0
256,1.1744,2.7198,0,0,0,0,0
256.5,1.1776,2.7195,0,0,0,0,0
257,1.1808,2.7201,0,0,0,0,0
257.5,1.1833,2.7216,0,0,0,0,0
258,1.1858,2.7244,0,0,0,0,0
258.5,1.1891,2.7266,0,0,0,0,0
259,1.1921,2.7285,0,0,0,0,0
259.5,1.1951,2.7297,0,0,0,0,0
260,1.1982,2.7312,0,0,0,0,0
260.5,1.2015,2.7317,0,0,0,0,0
261,1.2051,2.7316,0,0,0,0,0
261.5,1.2084,2.7313,0,0,0,0,0
262,1.2116,2.7322,0,0,0,0,0
262.5,1.2147,2.733,0,0,0,0,0
263,1.2173,2.734,0,0,0,0,0
263.5,1.2201,2.7355,0,0,0,0,0
264,1.2232,2.7372,0,0,0,0,0
264.5,1.2259,2.7381,0,0,0,0,0
265,1.229,2.7392,0,0,0,0,0
265.5,1.2322,2.7397,0,0,0,0,0
266,1.2353,2.7396,0,0,0,0,0
266.5,1.2387,2.7395,0,0,0,0,0
267,1.242,2.7408,0,0,0,0,0
267.5,1.2452,2.7425,0,0,0,0,0
268,1.2481,2.7429,0,0,0,0,0
268.5,1.2513,2.7429,0,0,0,0,0
269,1.2543,2.7438,0,0,0,0,0
269.5,1.2569,2.7468,0,0,0,0,0
270,1.2599,2.7491,0,0,0,0,0
270.5,1.2627,2.7497,0,0,0,0,0
271,1.2657,2.7497,0,0,0,0,0
271.5,1.269,2.751,0,0,0,0,0
272,1.2721,2.7531,0,0,0,0,0
272.5,1.2757,2.7549,0,0,0,0,0
273,1.2792,2.7563,0,0,0,0,0
273.5,1.2821,2.7577,0,0,0,0,0
274,1.2853,2.7589,0,0,0,0,0
274.5,1.288,2.7602,0,0,0,0,0
275,1.2911,2.761,0,0,0,0,0
275.5,1.294,2.762,0,0,0,0,0
276,1.2969,2.7632,0,0,0,0,0
276.5,1.2998,2.7642,0,0,0,0,0
277,1.303,2.7645,0,0,0,0,0
277.5,1.3063,2.7647,0,0,0,0,0
278,1.3096,2.765,0,0,0,0,0
278.5,1.313,2.7672,0,0,0,0,0
279,1.316,2.7691,0,0,0,0,0
279.5,1.3191,2.7697,0,0,0,0,0
280,1.3222,2.7697,0,0,0,0,0
280.5,1.3251,2.7714,0,0,0,0,0
281,1.3282,2.7738,0,0,0,0,0
281.5,1.3308,2.7757,0,0,0,0,0
282,1.3339,2.7768,0,0,0,0,0
282.5,1.337,2.7775,0,0,0,0,0
283,1.3399,2.7786,0,0,0,0,0
283.5,1.3431,2.7807,0,0,0,0,0
284,1.3467,2.7816,0,0,0,0,0
284.5,1.35,2.7823,0,0,0,0,0
285,1.3535,2.7826,0,0,0,0,0
285.5,1.3564,2.7835,0,0,0,0,0
286,1.3598,2.7844,0,0,0,0,0
286.5,1.3625,2.7868,0,0,0,0,0
287,1.3655,2.7883,0,0,0,0,0
287.5,1.3683,2.7886,0,0,0,0,0
288,1.371,2.789,0,0,0,0,0
288.5,1.3741,2.7892,0,0,0,0,0
289,1.3773,2.79,0,0,0,0,0
289.5,1.3805,2.7908,0,0,0,0,0
290,1.3842,2.7918,0,0,0,0,0
290.5,1.3873,2.7922,0,0,0,0,0
291,1.3904,2.794,0,0,0,0,0
291.5,1.3936,2.7956,0,0,0,0,0
292,1.3967,2.7984,0,0,0,0,0
292.5,1.3994,2.8004,0,0,0,0,0
293,1.4022,2.8009,0,0,0,0,0
293.5,1.4053,2.7996,0,0,0,0,0
294,1.4081,2.8009,0,0,0,0,0
294.5,1.4115,2.8025,0,0,0,0,0
295,1.4148,2.8035,0,0,0,0,0
295.5,1.4178,2.8035,0,0,0,0,0
296,1.4213,2.8039,0,0,0,0,0
296.5,1.4246,2.8055,0,0,0,0,0
297,1.4278,2.8068,0,0,0,0,0
297.5,1.431,2.8074,0,0,0,0,0
298,1.4341,2.8071,0,0,0,0,0
298.5,1.4367,2.8087,0,0,0,0,0
299,1.44,2.8119,0,0,0,0,0
299.5,1.443,2.8145,0,0,0,0,0
300,1.4458,2.8143,0,0,0,0,0
300.5,1.4491,2.8132,0,0,0,0,0
301,1.4524,2.8135,0,0,0,0,0
301.5,1.4556,2.815,0,0,0,0,0
302,1.4593,2.8158,0,0,0,0,0
302.5,1.4622,2.8158,0,0,0,0,0
303,1.4654,2.8162,0,0,0,0,0
303.5,1.4687,2.8169,0,0,0,0,0
304,1.4714,2.8176,0,0,0,0,0
304.5,1.4743,2.8185,0,0,0,0,0
305,1.4773,2.8207,0,0,0,0,0
305.5,1.4802,2.8227,0,0,0,0,0
306,1.4833,2.825,0,0,0,0,0
306.5,1.4866,2.8258,0,0,0,0,0
307,1.49,2.8262,0,0,0,0,0
307.5,1.4934,2.8272,0,0,0,0,0
308,1.4969,2.8301,0,0,0,0,0
308.5,1.5001,2.8322,0,0,0,0,0
309,1.5029,2.833,0,0,0,0,0
309.5,1.5061,2.833,0,0,0,0,0
310,1.509,2.8334,0,0,0,0,0
310.5,1.5119,2.8336,0,0,0,0,0
311,1.5148,2.8336,0,0,0,0,0
311.5,1.5179,2.8343,0,0,0,0,0
312,1.5209,2.8351,0,0,0,0,0
312.5,1.524,2.8361,0,0,0,0,0
313,1.5275,2.8369,0,0,0,0,0
313.5,1.5309,2.839,0,0,0,0,0
314,1.5342,2.8406,0,0,0,0,0
314.5,1.5375,2.841,0,0,0,0,0
315,1.5405,2.84,0,0,0,0,0
315.5,1.5431,2.8413,0,0,0,0,0
316,1.5462,2.8431,0,0,0,0,0
316.5,1.549,2.8443,0,0,0,0,0
317,1.5517,2.8443,0,0,0,0,0
317.5,1.5546,2.8459,0,0,0,0,0
318,1.5582,2.8474,0,0,0,0,0
318.5,1.5615,2.8491,0,0,0,0,0
319,1.5651,2.85,0,0,0,0,0
319.5,1.5684,2.8508,0,0,0,0,0
320,1.5715,2.8511,0,0,0,0,0
320.5,1.5746,2.8519,0,0,0,0,0
321,1.5776,2.8525,0,0,0,0,0
321.5,1.5808,2.8545,0,0,0,0,0
322,1.5835,2.8566,0,0,0,0,0
322.5,1.5862,2.8572,0,0,0,0,0
323,1.5893,2.8566,0,0,0,0,0
323.5,1.5926,2.8575,0,0,0,0,0
324,1.5955,2.8598,0,0,0,0,0
324.5,1.5988,2.862,0,0,0,0,0
325,1.602,2.8624,0,0,0,0,0
325.5,1.6056,2.8621,0,0,0,0,0
326,1.6089,2.8631,0,0,0,0,0
326.5,1.6118,2.8644,0,0,0,0,0
327,1.6147,2.8644,0,0,0,0,0
327.5,1.6178,2.8644,0,0,0,0,0
328,1.6205,2.8648,0,0,0,0,0
328.5,1.6237,2.8654,0,0,0,0,0
329,1.6267,2.8658,0,0,0,0,0
329.5,1.6299,2.8661,0,0,0,0,0
330,1.6331,2.8664,0,0,0,0,0
330.5,1.6367,2.8674,0,0,0,0,0
331,1.6404,2.8698,0,0,0,0,0
331.5,1.6433,2.8721,0,0,0,0,0
332,1.6464,2.8724,0,0,0,0,0
332.5,1.6497,2.8729,0,0,0,0,0
333,1.6525,2.8754,0,0,0,0,0
333.5,1.6554,2.8783,0,0,0,0,0
334,1.6584,2.8786,0,0,0,0,0
334.5,1.6613,2.8785,0,0,0,0,0
335,1.6645,2.8792,0,0,0,0,0
335.5,1.6675,2.8803,0,0,0,0,0
336,1.6708,2.882,0,0,0,0,0
336.5,1.6745,2.8826,0,0,0,0,0
337,1.6778,2.8828,0,0,0,0,0
337.5,1.681,2.8823,0,0,0,0,0
338,1.6842,2.8831,0,0,0,0,0
